Data from HR4C34221__5__15-13-26-757.txt Node

Date: Fri Apr 07 15:13:26 MSK 2023
User: 123
Spectrometer: HR4C3422
Trigger mode: 4
Integration Time (sec): 8,900000E-2
Scans to average: 1
Electric dark correction enabled: true
Nonlinearity correction enabled: false
Boxcar width: 0
XAxis mode: Wavelengths
Number of Pixels in Spectrum: 3648
>>>>>Begin Spectral Data<<<<<
195,326	-53,92
195,597	-53,92
195,868	-53,92
196,139	-41,92
196,409	10,08
196,68	2,08
196,951	2,08
197,221	-12,92
197,492	-2,92
197,762	-4,92
198,033	-1,92
198,304	11,08
198,574	-3,92
198,845	9,08
199,116	4,08
199,386	9,08
199,657	-11,92
199,927	1,08
200,198	8,08
200,468	13,08
200,739	3,08
201,009	-6,92
201,28	5,08
201,551	-0,92
201,821	4,08
202,092	4,08
202,362	10,08
202,633	-9,92
202,903	-6,92
203,174	-0,92
203,444	5,08
203,714	17,08
203,985	5,08
204,255	4,08
204,526	60,08
204,796	5,08
205,067	24,08
205,337	11,08
205,607	14,08
205,878	56,08
206,148	16,08
206,419	-12,92
206,689	1,08
206,959	4,08
207,23	2,08
207,5	6,08
207,77	7,08
208,041	-6,92
208,311	19,08
208,581	6,08
208,852	7,08
209,122	-1,92
209,392	-2,92
209,663	0,08
209,933	11,08
210,203	4,08
210,473	-0,92
210,744	-4,92
211,014	10,08
211,284	20,08
211,554	6,08
211,825	7,08
212,095	-9,92
212,365	3,08
212,635	11,08
212,905	9,08
213,176	8,08
213,446	26,08
213,716	-0,92
213,986	-2,92
214,256	13,08
214,526	3,08
214,797	14,08
215,067	1,08
215,337	16,08
215,607	14,08
215,877	-8,92
216,147	13,08
216,417	10,08
216,687	1,08
216,957	2,08
217,227	1,08
217,497	-5,92
217,767	-9,92
218,038	14,08
218,308	5,08
218,578	8,08
218,848	12,08
219,118	8,08
219,388	17,08
219,658	-14,92
219,928	6,08
220,198	-3,92
220,468	9,08
220,737	3,08
221,007	1,08
221,277	11,08
221,547	11,08
221,817	-3,92
222,087	6,08
222,357	13,08
222,627	4,08
222,897	-0,92
223,167	2,08
223,437	-4,92
223,707	19,08
223,976	14,08
224,246	8,08
224,516	10,08
224,786	9,08
225,056	-5,92
225,326	0,08
225,595	0,08
225,865	-6,92
226,135	-8,92
226,405	-2,92
226,675	1,08
226,944	28,08
227,214	7,08
227,484	-6,92
227,754	-0,92
228,023	5,08
228,293	4,08
228,563	0,08
228,833	7,08
229,102	17,08
229,372	19,08
229,642	20,08
229,911	9,08
230,181	5,08
230,451	-8,92
230,72	4,08
230,99	0,08
231,26	8,08
231,529	1,08
231,799	0,08
232,069	3,08
232,338	9,08
232,608	21,08
232,877	-0,92
233,147	-3,92
233,417	10,08
233,686	4,08
233,956	15,08
234,225	5,08
234,495	-1,92
234,764	5,08
235,034	4,08
235,304	-11,92
235,573	79,08
235,843	2,08
236,112	-4,92
236,382	1,08
236,651	13,08
236,921	3,08
237,19	-4,92
237,46	-8,92
237,729	-14,92
237,998	-19,92
238,268	7,08
238,537	16,08
238,807	24,08
239,076	-8,92
239,346	-2,92
239,615	-0,92
239,884	-2,92
240,154	7,08
240,423	0,08
240,693	8,08
240,962	-0,92
241,231	7,08
241,501	4,08
241,77	-2,92
242,039	-5,92
242,309	-11,92
242,578	0,08
242,847	-6,92
243,116	9,08
243,386	-3,92
243,655	0,08
243,924	2,08
244,194	3,08
244,463	17,08
244,732	12,08
245,001	4,08
245,271	78,08
245,54	6,08
245,809	-10,92
246,078	-12,92
246,347	-2,92
246,617	6,08
246,886	4,08
247,155	-3,92
247,424	8,08
247,693	5,08
247,963	-8,92
248,232	8,08
248,501	2,08
248,77	0,08
249,039	5,08
249,308	13,08
249,577	14,08
249,846	-5,92
250,115	3,08
250,385	7,08
250,654	18,08
250,923	12,08
251,192	10,08
251,461	0,08
251,73	-6,92
251,999	-0,92
252,268	6,08
252,537	0,08
252,806	4,08
253,075	13,08
253,344	10,08
253,613	20,08
253,882	11,08
254,151	19,08
254,42	2,08
254,689	-0,92
254,958	-2,92
255,227	6,08
255,496	-1,92
255,765	3,08
256,033	-6,92
256,302	11,08
256,571	21,08
256,84	2,08
257,109	-9,92
257,378	-11,92
257,647	-3,92
257,916	1,08
258,184	4,08
258,453	1,08
258,722	11,08
258,991	-9,92
259,26	0,08
259,529	4,08
259,797	9,08
260,066	9,08
260,335	12,08
260,604	-9,92
260,873	0,08
261,141	-5,92
261,41	-7,92
261,679	-0,92
261,948	9,08
262,216	-5,92
262,485	1,08
262,754	-2,92
263,022	12,08
263,291	21,08
263,56	-2,92
263,829	-2,92
264,097	4,08
264,366	0,08
264,635	4,08
264,903	6,08
265,172	19,08
265,44	13,08
265,709	15,08
265,978	-1,92
266,246	8,08
266,515	14,08
266,784	-0,92
267,052	3,08
267,321	-8,92
267,589	101,08
267,858	9,08
268,126	-8,92
268,395	3,08
268,663	4,08
268,932	15,08
269,201	12,08
269,469	-6,92
269,738	-1,92
270,006	-13,92
270,275	24,08
270,543	-5,92
270,811	13,08
271,08	8,08
271,348	22,08
271,617	16,08
271,885	-8,92
272,154	-18,92
272,422	0,08
272,691	5,08
272,959	18,08
273,227	0,08
273,496	13,08
273,764	8,08
274,033	20,08
274,301	-3,92
274,569	1,08
274,838	17,08
275,106	5,08
275,374	26,08
275,643	7,08
275,911	23,08
276,179	4,08
276,448	11,08
276,716	-0,92
276,984	-6,92
277,252	3,08
277,521	-8,92
277,789	2,08
278,057	-4,92
278,325	5,08
278,594	8,08
278,862	0,08
279,13	3,08
279,398	5,08
279,667	13,08
279,935	3,08
280,203	0,08
280,471	1,08
280,739	2,08
281,008	-5,92
281,276	1,08
281,544	6,08
281,812	-12,92
282,08	0,08
282,348	5,08
282,616	-0,92
282,884	-9,92
283,153	8,08
283,421	12,08
283,689	14,08
283,957	9,08
284,225	-10,92
284,493	12,08
284,761	18,08
285,029	3,08
285,297	1,08
285,565	-15,92
285,833	5,08
286,101	3,08
286,369	-3,92
286,637	-13,92
286,905	-14,92
287,173	3,08
287,441	0,08
287,709	2,08
287,977	-14,92
288,245	-14,92
288,513	-4,92
288,781	2,08
289,049	24,08
289,317	-2,92
289,585	0,08
289,853	27,08
290,12	5,08
290,388	0,08
290,656	-2,92
290,924	-3,92
291,192	-10,92
291,46	-6,92
291,728	-2,92
291,996	-0,92
292,263	15,08
292,531	12,08
292,799	-25,92
293,067	9,08
293,335	8,08
293,602	-6,92
293,87	1,08
294,138	6,08
294,406	10,08
294,673	5,08
294,941	7,08
295,209	-2,92
295,477	-4,92
295,744	8,08
296,012	-0,92
296,28	1,08
296,548	-14,92
296,815	-1,92
297,083	6,08
297,351	19,08
297,618	15,08
297,886	5,08
298,154	13,08
298,421	4,08
298,689	-6,92
298,956	1,08
299,224	1,08
299,492	-11,92
299,759	-5,92
300,027	5,08
300,294	18,08
300,562	10,08
300,83	11,08
301,097	-4,92
301,365	-5,92
301,632	5,08
301,9	0,08
302,167	-3,92
302,435	-1,92
302,702	8,08
302,97	-0,92
303,237	-6,92
303,505	18,08
303,772	14,08
304,04	14,08
304,307	-7,92
304,575	-1,92
304,842	1,08
305,11	5,08
305,377	6,08
305,645	8,08
305,912	-0,92
306,179	0,08
306,447	0,08
306,714	0,08
306,982	-6,92
307,249	5,08
307,516	0,08
307,784	12,08
308,051	2,08
308,318	15,08
308,586	4,08
308,853	3,08
309,12	-14,92
309,388	5,08
309,655	17,08
309,922	14,08
310,19	-8,92
310,457	9,08
310,724	11,08
310,991	13,08
311,259	11,08
311,526	-3,92
311,793	-14,92
312,06	5,08
312,328	7,08
312,595	-2,92
312,862	0,08
313,129	17,08
313,396	7,08
313,664	-10,92
313,931	-5,92
314,198	3,08
314,465	-5,92
314,732	-15,92
314,999	0,08
315,266	-3,92
315,534	10,08
315,801	3,08
316,068	-1,92
316,335	3,08
316,602	6,08
316,869	-2,92
317,136	0,08
317,403	-4,92
317,67	5,08
317,937	14,08
318,204	3,08
318,471	-9,92
318,738	12,08
319,005	3,08
319,272	-6,92
319,539	1,08
319,806	-1,92
320,073	-7,92
320,34	-0,92
320,607	18,08
320,874	7,08
321,141	-4,92
321,408	8,08
321,675	-6,92
321,942	-3,92
322,209	-0,92
322,476	-4,92
322,743	-6,92
323,01	5,08
323,277	-8,92
323,544	10,08
323,81	5,08
324,077	1,08
324,344	6,08
324,611	7,08
324,878	15,08
325,145	16,08
325,412	20,08
325,678	1,08
325,945	9,08
326,212	0,08
326,479	19,08
326,746	4,08
327,012	5,08
327,279	-15,92
327,546	0,08
327,813	2,08
328,079	4,08
328,346	-10,92
328,613	7,08
328,88	21,08
329,146	16,08
329,413	12,08
329,68	-15,92
329,946	-9,92
330,213	-14,92
330,48	-4,92
330,746	-0,92
331,013	16,08
331,28	-7,92
331,546	7,08
331,813	-15,92
332,08	-10,92
332,346	-13,92
332,613	4,08
332,879	1,08
333,146	12,08
333,413	3,08
333,679	-7,92
333,946	5,08
334,212	9,08
334,479	2,08
334,745	10,08
335,012	11,08
335,278	0,08
335,545	9,08
335,811	2,08
336,078	8,08
336,344	-10,92
336,611	0,08
336,877	0,08
337,144	4,08
337,41	-11,92
337,677	19,08
337,943	16,08
338,21	8,08
338,476	4,08
338,742	4,08
339,009	-5,92
339,275	2,08
339,542	-2,92
339,808	3,08
340,074	5,08
340,341	-1,92
340,607	14,08
340,873	5,08
341,14	-0,92
341,406	-3,92
341,672	11,08
341,939	-19,92
342,205	1,08
342,471	-7,92
342,738	-20,92
343,004	5,08
343,27	-3,92
343,537	23,08
343,803	2,08
344,069	-3,92
344,335	-7,92
344,602	7,08
344,868	4,08
345,134	4,08
345,4	-6,92
345,666	7,08
345,933	-2,92
346,199	-6,92
346,465	7,08
346,731	11,08
346,997	0,08
347,263	-1,92
347,53	12,08
347,796	0,08
348,062	12,08
348,328	14,08
348,594	-0,92
348,86	-8,92
349,126	-3,92
349,392	-6,92
349,659	8,08
349,925	-1,92
350,191	-11,92
350,457	-1,92
350,723	-21,92
350,989	-7,92
351,255	0,08
351,521	3,08
351,787	-11,92
352,053	-8,92
352,319	-1,92
352,585	12,08
352,851	-14,92
353,117	-0,92
353,383	12,08
353,649	-9,92
353,915	-7,92
354,181	18,08
354,447	6,08
354,713	2,08
354,978	15,08
355,244	-1,92
355,51	-8,92
355,776	1,08
356,042	9,08
356,308	13,08
356,574	17,08
356,84	2,08
357,106	-0,92
357,371	-8,92
357,637	11,08
357,903	6,08
358,169	-7,92
358,435	-8,92
358,701	-3,92
358,966	0,08
359,232	-2,92
359,498	5,08
359,764	19,08
360,029	-4,92
360,295	2,08
360,561	-10,92
360,827	5,08
361,092	-6,92
361,358	6,08
361,624	-14,92
361,89	-2,92
362,155	8,08
362,421	4,08
362,687	-0,92
362,952	1,08
363,218	9,08
363,484	7,08
363,749	-0,92
364,015	14,08
364,281	-1,92
364,546	-8,92
364,812	-3,92
365,077	-4,92
365,343	7,08
365,609	8,08
365,874	-1,92
366,14	-2,92
366,405	3,08
366,671	4,08
366,936	6,08
367,202	-7,92
367,467	15,08
367,733	4,08
367,999	-3,92
368,264	-0,92
368,53	6,08
368,795	-3,92
369,061	14,08
369,326	-6,92
369,591	-4,92
369,857	7,08
370,122	6,08
370,388	-5,92
370,653	13,08
370,919	-0,92
371,184	-2,92
371,45	15,08
371,715	3,08
371,98	6,08
372,246	-6,92
372,511	4,08
372,776	-0,92
373,042	4,08
373,307	-24,92
373,573	-12,92
373,838	-11,92
374,103	4,08
374,369	7,08
374,634	-2,92
374,899	9,08
375,164	-3,92
375,43	12,08
375,695	7,08
375,96	2,08
376,226	-5,92
376,491	9,08
376,756	9,08
377,021	12,08
377,286	1,08
377,552	-1,92
377,817	-3,92
378,082	12,08
378,347	0,08
378,613	13,08
378,878	25,08
379,143	0,08
379,408	-8,92
379,673	2,08
379,938	4,08
380,203	-1,92
380,469	10,08
380,734	21,08
380,999	8,08
381,264	8,08
381,529	3,08
381,794	-7,92
382,059	18,08
382,324	2,08
382,589	10,08
382,854	-7,92
383,119	-5,92
383,385	-7,92
383,65	-11,92
383,915	-4,92
384,18	4,08
384,445	1,08
384,71	14,08
384,975	0,08
385,24	7,08
385,505	-8,92
385,77	-7,92
386,034	13,08
386,299	2,08
386,564	16,08
386,829	10,08
387,094	16,08
387,359	2,08
387,624	2,08
387,889	14,08
388,154	9,08
388,419	-0,92
388,684	-10,92
388,949	-6,92
389,213	-3,92
389,478	-22,92
389,743	-3,92
390,008	-1,92
390,273	18,08
390,538	-0,92
390,802	0,08
391,067	9,08
391,332	12,08
391,597	23,08
391,862	18,08
392,126	8,08
392,391	8,08
392,656	-3,92
392,921	-9,92
393,185	-1,92
393,45	5,08
393,715	6,08
393,979	18,08
394,244	5,08
394,509	7,08
394,774	27,08
395,038	12,08
395,303	0,08
395,568	2,08
395,832	4,08
396,097	18,08
396,361	16,08
396,626	3,08
396,891	-0,92
397,155	7,08
397,42	13,08
397,685	10,08
397,949	-22,92
398,214	-8,92
398,478	6,08
398,743	6,08
399,007	14,08
399,272	8,08
399,536	6,08
399,801	22,08
400,066	-8,92
400,33	3,08
400,595	-2,92
400,859	-2,92
401,124	3,08
401,388	11,08
401,652	6,08
401,917	29,08
402,181	-7,92
402,446	11,08
402,71	0,08
402,975	-0,92
403,239	3,08
403,504	0,08
403,768	-2,92
404,032	10,08
404,297	10,08
404,561	12,08
404,826	15,08
405,09	5,08
405,354	-5,92
405,619	17,08
405,883	7,08
406,147	2,08
406,412	-1,92
406,676	-9,92
406,94	9,08
407,205	8,08
407,469	4,08
407,733	5,08
407,997	9,08
408,262	21,08
408,526	6,08
408,79	8,08
409,054	1,08
409,319	3,08
409,583	-2,92
409,847	1,08
410,111	8,08
410,375	1,08
410,64	7,08
410,904	10,08
411,168	0,08
411,432	5,08
411,696	-16,92
411,96	6,08
412,225	23,08
412,489	17,08
412,753	0,08
413,017	0,08
413,281	13,08
413,545	20,08
413,809	1,08
414,073	-9,92
414,337	-3,92
414,602	1,08
414,866	-7,92
415,13	-5,92
415,394	-7,92
415,658	-0,92
415,922	18,08
416,186	-0,92
416,45	-2,92
416,714	17,08
416,978	1,08
417,242	-1,92
417,506	1,08
417,77	4,08
418,034	17,08
418,298	6,08
418,562	9,08
418,825	-8,92
419,089	7,08
419,353	2,08
419,617	7,08
419,881	0,08
420,145	10,08
420,409	9,08
420,673	10,08
420,937	-17,92
421,2	6,08
421,464	12,08
421,728	7,08
421,992	-15,92
422,256	3,08
422,52	6,08
422,783	5,08
423,047	9,08
423,311	4,08
423,575	-0,92
423,839	5,08
424,102	-1,92
424,366	4,08
424,63	-5,92
424,894	-0,92
425,157	6,08
425,421	-5,92
425,685	7,08
425,949	-5,92
426,212	-0,92
426,476	2,08
426,74	5,08
427,003	5,08
427,267	7,08
427,531	1,08
427,794	4,08
428,058	-0,92
428,322	-13,92
428,585	-10,92
428,849	14,08
429,112	6,08
429,376	20,08
429,64	24,08
429,903	-6,92
430,167	7,08
430,43	-14,92
430,694	-1,92
430,957	11,08
431,221	0,08
431,485	-0,92
431,748	-5,92
432,012	-8,92
432,275	5,08
432,539	14,08
432,802	12,08
433,066	1,08
433,329	-0,92
433,593	-6,92
433,856	9,08
434,119	3,08
434,383	34,08
434,646	7,08
434,91	16,08
435,173	-0,92
435,437	2,08
435,7	4,08
435,963	5,08
436,227	-9,92
436,49	-7,92
436,753	28,08
437,017	2,08
437,28	-18,92
437,544	3,08
437,807	3,08
438,07	0,08
438,334	-5,92
438,597	-10,92
438,86	2,08
439,123	-1,92
439,387	13,08
439,65	-13,92
439,913	-6,92
440,177	-12,92
440,44	-8,92
440,703	-3,92
440,966	2,08
441,229	4,08
441,493	16,08
441,756	2,08
442,019	11,08
442,282	7,08
442,545	9,08
442,809	46,08
443,072	15,08
443,335	-1,92
443,598	1,08
443,861	19,08
444,124	17,08
444,388	7,08
444,651	3,08
444,914	9,08
445,177	0,08
445,44	21,08
445,703	1,08
445,966	-1,92
446,229	5,08
446,492	7,08
446,755	-1,92
447,018	10,08
447,281	4,08
447,544	2,08
447,807	8,08
448,07	4,08
448,333	2,08
448,596	12,08
448,859	17,08
449,122	10,08
449,385	8,08
449,648	2,08
449,911	6,08
450,174	-10,92
450,437	2,08
450,7	0,08
450,963	-9,92
451,226	-2,92
451,489	-18,92
451,752	11,08
452,015	-0,92
452,277	-3,92
452,54	16,08
452,803	-7,92
453,066	8,08
453,329	9,08
453,592	0,08
453,855	-11,92
454,117	8,08
454,38	0,08
454,643	-8,92
454,906	-14,92
455,169	-0,92
455,431	-16,92
455,694	0,08
455,957	10,08
456,22	1,08
456,482	-4,92
456,745	8,08
457,008	9,08
457,271	13,08
457,533	40,08
457,796	0,08
458,059	-0,92
458,321	9,08
458,584	-7,92
458,847	-13,92
459,109	-4,92
459,372	0,08
459,635	-2,92
459,897	0,08
460,16	3,08
460,423	18,08
460,685	15,08
460,948	24,08
461,21	-18,92
461,473	1,08
461,735	-13,92
461,998	9,08
462,261	-5,92
462,523	-11,92
462,786	17,08
463,048	2,08
463,311	-9,92
463,573	5,08
463,836	0,08
464,098	14,08
464,361	12,08
464,623	-6,92
464,886	3,08
465,148	11,08
465,411	14,08
465,673	8,08
465,936	17,08
466,198	11,08
466,46	-6,92
466,723	-0,92
466,985	-6,92
467,248	-0,92
467,51	15,08
467,772	12,08
468,035	8,08
468,297	29,08
468,56	3,08
468,822	17,08
469,084	2,08
469,347	2,08
469,609	14,08
469,871	21,08
470,133	26,08
470,396	22,08
470,658	-6,92
470,92	9,08
471,183	10,08
471,445	21,08
471,707	14,08
471,969	13,08
472,232	1,08
472,494	8,08
472,756	16,08
473,018	1,08
473,281	24,08
473,543	13,08
473,805	12,08
474,067	23,08
474,329	32,08
474,591	13,08
474,854	12,08
475,116	15,08
475,378	26,08
475,64	20,08
475,902	-3,92
476,164	24,08
476,426	13,08
476,688	7,08
476,951	9,08
477,213	17,08
477,475	17,08
477,737	0,08
477,999	0,08
478,261	23,08
478,523	-1,92
478,785	19,08
479,047	19,08
479,309	15,08
479,571	6,08
479,833	12,08
480,095	15,08
480,357	15,08
480,619	29,08
480,881	5,08
481,143	18,08
481,405	16,08
481,667	38,08
481,929	30,08
482,191	14,08
482,452	12,08
482,714	26,08
482,976	17,08
483,238	23,08
483,5	13,08
483,762	7,08
484,024	31,08
484,286	48,08
484,547	36,08
484,809	43,08
485,071	32,08
485,333	29,08
485,595	27,08
485,857	21,08
486,118	25,08
486,38	36,08
486,642	24,08
486,904	24,08
487,165	24,08
487,427	29,08
487,689	31,08
487,951	23,08
488,212	47,08
488,474	40,08
488,736	33,08
488,998	62,08
489,259	58,08
489,521	47,08
489,783	44,08
490,044	42,08
490,306	46,08
490,568	53,08
490,829	44,08
491,091	35,08
491,353	42,08
491,614	43,08
491,876	32,08
492,137	46,08
492,399	69,08
492,661	67,08
492,922	61,08
493,184	60,08
493,445	57,08
493,707	63,08
493,968	59,08
494,23	72,08
494,491	64,08
494,753	50,08
495,014	68,08
495,276	68,08
495,537	67,08
495,799	72,08
496,06	78,08
496,322	76,08
496,583	91,08
496,845	78,08
497,106	90,08
497,368	97,08
497,629	95,08
497,89	82,08
498,152	100,08
498,413	99,08
498,675	90,08
498,936	93,08
499,197	100,08
499,459	94,08
499,72	110,08
499,981	101,08
500,243	94,08
500,504	130,08
500,765	111,08
501,027	114,08
501,288	127,08
501,549	129,08
501,811	117,08
502,072	125,08
502,333	167,08
502,594	153,08
502,856	143,08
503,117	159,08
503,378	147,08
503,639	152,08
503,901	171,08
504,162	167,08
504,423	159,08
504,684	190,08
504,945	193,08
505,207	208,08
505,468	193,08
505,729	163,08
505,99	192,08
506,251	219,08
506,512	216,08
506,774	204,08
507,035	211,08
507,296	217,08
507,557	228,08
507,818	226,08
508,079	242,08
508,34	258,08
508,601	260,08
508,862	271,08
509,123	273,08
509,384	278,08
509,645	282,08
509,906	295,08
510,167	301,08
510,428	289,08
510,689	307,08
510,95	312,08
511,211	316,08
511,472	343,08
511,733	346,08
511,994	345,08
512,255	341,08
512,516	351,08
512,777	373,08
513,038	383,08
513,299	373,08
513,56	379,08
513,821	395,08
514,082	422,08
514,343	402,08
514,603	402,08
514,864	433,08
515,125	451,08
515,386	436,08
515,647	442,08
515,908	446,08
516,169	453,08
516,429	480,08
516,69	465,08
516,951	489,08
517,212	514,08
517,473	514,08
517,733	509,08
517,994	510,08
518,255	513,08
518,516	518,08
518,776	527,08
519,037	555,08
519,298	530,08
519,559	572,08
519,819	568,08
520,08	565,08
520,341	570,08
520,601	590,08
520,862	618,08
521,123	607,08
521,383	629,08
521,644	613,08
521,905	638,08
522,165	639,08
522,426	642,08
522,686	684,08
522,947	646,08
523,208	681,08
523,468	656,08
523,729	680,08
523,989	708,08
524,25	710,08
524,51	714,08
524,771	713,08
525,032	715,08
525,292	734,08
525,553	734,08
525,813	732,08
526,074	734,08
526,334	735,08
526,595	735,08
526,855	757,08
527,116	738,08
527,376	762,08
527,636	774,08
527,897	776,08
528,157	773,08
528,418	803,08
528,678	805,08
528,939	804,08
529,199	786,08
529,459	791,08
529,72	795,08
529,98	815,08
530,24	808,08
530,501	828,08
530,761	804,08
531,022	825,08
531,282	817,08
531,542	814,08
531,803	834,08
532,063	814,08
532,323	826,08
532,583	836,08
532,844	847,08
533,104	831,08
533,364	835,08
533,624	873,08
533,885	830,08
534,145	827,08
534,405	867,08
534,665	864,08
534,926	850,08
535,186	848,08
535,446	866,08
535,706	857,08
535,966	865,08
536,227	856,08
536,487	882,08
536,747	832,08
537,007	848,08
537,267	851,08
537,527	882,08
537,787	841,08
538,048	863,08
538,308	878,08
538,568	876,08
538,828	817,08
539,088	829,08
539,348	827,08
539,608	829,08
539,868	837,08
540,128	821,08
540,388	832,08
540,648	847,08
540,908	809,08
541,168	836,08
541,428	848,08
541,688	823,08
541,948	828,08
542,208	837,08
542,468	817,08
542,728	799,08
542,988	843,08
543,248	803,08
543,508	806,08
543,768	775,08
544,028	801,08
544,288	783,08
544,548	780,08
544,807	808,08
545,067	798,08
545,327	789,08
545,587	786,08
545,847	785,08
546,107	756,08
546,367	770,08
546,626	759,08
546,886	760,08
547,146	750,08
547,406	754,08
547,666	732,08
547,925	765,08
548,185	740,08
548,445	732,08
548,705	711,08
548,965	719,08
549,224	724,08
549,484	751,08
549,744	698,08
550,003	705,08
550,263	714,08
550,523	689,08
550,783	675,08
551,042	687,08
551,302	659,08
551,562	683,08
551,821	673,08
552,081	685,08
552,341	665,08
552,6	661,08
552,86	652,08
553,119	642,08
553,379	662,08
553,639	639,08
553,898	638,08
554,158	620,08
554,417	613,08
554,677	623,08
554,936	630,08
555,196	594,08
555,456	604,08
555,715	601,08
555,975	580,08
556,234	587,08
556,494	552,08
556,753	569,08
557,013	559,08
557,272	577,08
557,532	553,08
557,791	573,08
558,051	548,08
558,31	563,08
558,569	551,08
558,829	529,08
559,088	537,08
559,348	505,08
559,607	532,08
559,866	520,08
560,126	477,08
560,385	495,08
560,645	505,08
560,904	483,08
561,163	494,08
561,423	469,08
561,682	494,08
561,941	497,08
562,201	468,08
562,46	465,08
562,719	473,08
562,979	431,08
563,238	463,08
563,497	432,08
563,756	427,08
564,016	439,08
564,275	414,08
564,534	424,08
564,793	431,08
565,053	399,08
565,312	415,08
565,571	386,08
565,83	412,08
566,089	406,08
566,349	415,08
566,608	396,08
566,867	380,08
567,126	388,08
567,385	373,08
567,644	358,08
567,903	362,08
568,163	365,08
568,422	358,08
568,681	352,08
568,94	348,08
569,199	350,08
569,458	329,08
569,717	351,08
569,976	333,08
570,235	316,08
570,494	327,08
570,753	331,08
571,012	311,08
571,271	309,08
571,53	315,08
571,789	306,08
572,048	305,08
572,307	311,08
572,566	309,08
572,825	295,08
573,084	275,08
573,343	301,08
573,602	287,08
573,861	270,08
574,12	266,08
574,379	256,08
574,638	272,08
574,897	262,08
575,156	267,08
575,414	252,08
575,673	245,08
575,932	255,08
576,191	248,08
576,45	235,08
576,709	224,08
576,968	222,08
577,226	223,08
577,485	211,08
577,744	239,08
578,003	220,08
578,262	201,08
578,52	197,08
578,779	206,08
579,038	198,08
579,297	201,08
579,555	196,08
579,814	201,08
580,073	200,08
580,332	186,08
580,59	188,08
580,849	182,08
581,108	163,08
581,366	172,08
581,625	189,08
581,884	187,08
582,142	176,08
582,401	184,08
582,66	138,08
582,918	142,08
583,177	145,08
583,436	146,08
583,694	161,08
583,953	157,08
584,211	135,08
584,47	141,08
584,728	125,08
584,987	144,08
585,246	165,08
585,504	137,08
585,763	137,08
586,021	135,08
586,28	129,08
586,538	137,08
586,797	112,08
587,055	101,08
587,314	116,08
587,572	106,08
587,831	115,08
588,089	104,08
588,348	101,08
588,606	90,08
588,864	105,08
589,123	100,08
589,381	105,08
589,64	89,08
589,898	95,08
590,157	94,08
590,415	79,08
590,673	104,08
590,932	97,08
591,19	84,08
591,448	84,08
591,707	74,08
591,965	73,08
592,223	63,08
592,482	84,08
592,74	66,08
592,998	74,08
593,257	47,08
593,515	59,08
593,773	71,08
594,031	52,08
594,29	53,08
594,548	61,08
594,806	52,08
595,064	73,08
595,323	45,08
595,581	47,08
595,839	49,08
596,097	62,08
596,355	74,08
596,613	48,08
596,872	59,08
597,13	49,08
597,388	51,08
597,646	48,08
597,904	47,08
598,162	50,08
598,42	41,08
598,679	48,08
598,937	51,08
599,195	49,08
599,453	49,08
599,711	57,08
599,969	53,08
600,227	31,08
600,485	30,08
600,743	36,08
601,001	47,08
601,259	24,08
601,517	24,08
601,775	19,08
602,033	36,08
602,291	28,08
602,549	25,08
602,807	16,08
603,065	37,08
603,323	33,08
603,581	30,08
603,839	16,08
604,097	24,08
604,355	28,08
604,613	19,08
604,871	18,08
605,128	35,08
605,386	18,08
605,644	39,08
605,902	10,08
606,16	16,08
606,418	24,08
606,676	27,08
606,933	2,08
607,191	11,08
607,449	13,08
607,707	25,08
607,965	18,08
608,223	22,08
608,48	5,08
608,738	11,08
608,996	11,08
609,254	26,08
609,511	22,08
609,769	7,08
610,027	8,08
610,285	-9,92
610,542	3,08
610,8	21,08
611,058	15,08
611,315	9,08
611,573	18,08
611,831	14,08
612,088	27,08
612,346	5,08
612,604	9,08
612,861	5,08
613,119	9,08
613,376	0,08
613,634	31,08
613,892	17,08
614,149	8,08
614,407	3,08
614,664	-9,92
614,922	21,08
615,18	23,08
615,437	13,08
615,695	11,08
615,952	15,08
616,21	24,08
616,467	21,08
616,725	8,08
616,982	10,08
617,24	12,08
617,497	3,08
617,755	22,08
618,012	-5,92
618,27	26,08
618,527	5,08
618,784	10,08
619,042	0,08
619,299	24,08
619,557	12,08
619,814	18,08
620,071	21,08
620,329	-9,92
620,586	7,08
620,844	11,08
621,101	14,08
621,358	-4,92
621,616	-7,92
621,873	0,08
622,13	-4,92
622,388	14,08
622,645	7,08
622,902	-8,92
623,159	8,08
623,417	5,08
623,674	-4,92
623,931	-2,92
624,188	1,08
624,446	1,08
624,703	16,08
624,96	3,08
625,217	1,08
625,475	15,08
625,732	14,08
625,989	10,08
626,246	20,08
626,503	14,08
626,761	18,08
627,018	20,08
627,275	19,08
627,532	8,08
627,789	15,08
628,046	-3,92
628,303	5,08
628,56	4,08
628,818	16,08
629,075	16,08
629,332	11,08
629,589	14,08
629,846	18,08
630,103	22,08
630,36	16,08
630,617	-2,92
630,874	-0,92
631,131	-0,92
631,388	-3,92
631,645	6,08
631,902	0,08
632,159	9,08
632,416	-16,92
632,673	-12,92
632,93	-0,92
633,187	-3,92
633,444	8,08
633,701	7,08
633,958	8,08
634,215	13,08
634,471	-9,92
634,728	4,08
634,985	-0,92
635,242	1,08
635,499	8,08
635,756	-8,92
636,013	7,08
636,27	1,08
636,526	-2,92
636,783	9,08
637,04	16,08
637,297	3,08
637,554	3,08
637,81	4,08
638,067	27,08
638,324	32,08
638,581	5,08
638,838	-0,92
639,094	12,08
639,351	24,08
639,608	21,08
639,864	-6,92
640,121	-4,92
640,378	11,08
640,635	5,08
640,891	2,08
641,148	20,08
641,405	-0,92
641,661	17,08
641,918	8,08
642,175	7,08
642,431	-1,92
642,688	2,08
642,944	0,08
643,201	7,08
643,458	-12,92
643,714	16,08
643,971	1,08
644,227	17,08
644,484	14,08
644,741	-4,92
644,997	2,08
645,254	1,08
645,51	-2,92
645,767	16,08
646,023	13,08
646,28	7,08
646,536	17,08
646,793	9,08
647,049	15,08
647,306	8,08
647,562	-19,92
647,819	4,08
648,075	7,08
648,331	3,08
648,588	-0,92
648,844	-6,92
649,101	-14,92
649,357	-0,92
649,613	11,08
649,87	3,08
650,126	8,08
650,383	-11,92
650,639	14,08
650,895	21,08
651,152	11,08
651,408	-0,92
651,664	4,08
651,921	6,08
652,177	-1,92
652,433	9,08
652,689	17,08
652,946	-3,92
653,202	8,08
653,458	-1,92
653,715	21,08
653,971	-3,92
654,227	9,08
654,483	1,08
654,739	-3,92
654,996	-12,92
655,252	-5,92
655,508	4,08
655,764	0,08
656,02	0,08
656,277	13,08
656,533	1,08
656,789	17,08
657,045	-3,92
657,301	12,08
657,557	7,08
657,813	8,08
658,07	-9,92
658,326	10,08
658,582	0,08
658,838	7,08
659,094	-13,92
659,35	1,08
659,606	-3,92
659,862	0,08
660,118	-7,92
660,374	7,08
660,63	3,08
660,886	-2,92
661,142	-3,92
661,398	2,08
661,654	9,08
661,91	-4,92
662,166	10,08
662,422	1,08
662,678	3,08
662,934	8,08
663,19	15,08
663,446	22,08
663,702	34,08
663,957	17,08
664,213	-2,92
664,469	17,08
664,725	7,08
664,981	1,08
665,237	-8,92
665,493	6,08
665,749	5,08
666,004	4,08
666,26	-7,92
666,516	8,08
666,772	4,08
667,028	-4,92
667,283	-7,92
667,539	20,08
667,795	43,08
668,051	20,08
668,307	22,08
668,562	9,08
668,818	9,08
669,074	4,08
669,329	11,08
669,585	11,08
669,841	2,08
670,097	-3,92
670,352	-7,92
670,608	5,08
670,864	-6,92
671,119	9,08
671,375	15,08
671,631	17,08
671,886	9,08
672,142	6,08
672,397	16,08
672,653	-3,92
672,909	9,08
673,164	-4,92
673,42	16,08
673,675	23,08
673,931	25,08
674,186	-0,92
674,442	-6,92
674,698	4,08
674,953	-6,92
675,209	1,08
675,464	-3,92
675,72	7,08
675,975	6,08
676,231	-5,92
676,486	13,08
676,742	7,08
676,997	-0,92
677,252	-5,92
677,508	-1,92
677,763	21,08
678,019	12,08
678,274	17,08
678,53	-12,92
678,785	3,08
679,04	26,08
679,296	-1,92
679,551	9,08
679,806	-2,92
680,062	4,08
680,317	-8,92
680,572	20,08
680,828	-6,92
681,083	8,08
681,338	3,08
681,594	8,08
681,849	-4,92
682,104	12,08
682,36	1,08
682,615	8,08
682,87	8,08
683,125	-0,92
683,381	-1,92
683,636	-6,92
683,891	-10,92
684,146	9,08
684,401	12,08
684,657	16,08
684,912	12,08
685,167	6,08
685,422	4,08
685,677	4,08
685,932	-5,92
686,188	-5,92
686,443	12,08
686,698	11,08
686,953	15,08
687,208	16,08
687,463	7,08
687,718	0,08
687,973	19,08
688,228	1,08
688,483	7,08
688,739	0,08
688,994	6,08
689,249	-4,92
689,504	11,08
689,759	21,08
690,014	-4,92
690,269	0,08
690,524	3,08
690,779	1,08
691,034	-2,92
691,289	8,08
691,544	-10,92
691,798	13,08
692,053	28,08
692,308	13,08
692,563	-3,92
692,818	9,08
693,073	4,08
693,328	11,08
693,583	-1,92
693,838	16,08
694,093	-4,92
694,347	-10,92
694,602	7,08
694,857	4,08
695,112	1,08
695,367	0,08
695,622	8,08
695,876	17,08
696,131	3,08
696,386	21,08
696,641	32,08
696,896	16,08
697,15	-3,92
697,405	2,08
697,66	13,08
697,915	5,08
698,169	7,08
698,424	7,08
698,679	7,08
698,933	7,08
699,188	9,08
699,443	-3,92
699,698	-8,92
699,952	-1,92
700,207	-9,92
700,461	3,08
700,716	7,08
700,971	4,08
701,225	-5,92
701,48	0,08
701,735	2,08
701,989	9,08
702,244	2,08
702,498	2,08
702,753	8,08
703,007	19,08
703,262	7,08
703,517	7,08
703,771	5,08
704,026	1,08
704,28	12,08
704,535	11,08
704,789	1,08
705,044	8,08
705,298	1,08
705,553	15,08
705,807	1,08
706,062	4,08
706,316	4,08
706,57	-0,92
706,825	0,08
707,079	21,08
707,334	5,08
707,588	-1,92
707,842	14,08
708,097	4,08
708,351	-1,92
708,606	9,08
708,86	-7,92
709,114	10,08
709,369	2,08
709,623	9,08
709,877	2,08
710,132	3,08
710,386	-6,92
710,64	11,08
710,895	5,08
711,149	13,08
711,403	-3,92
711,657	17,08
711,912	2,08
712,166	5,08
712,42	7,08
712,674	7,08
712,928	5,08
713,183	7,08
713,437	-12,92
713,691	4,08
713,945	4,08
714,199	-2,92
714,454	3,08
714,708	17,08
714,962	22,08
715,216	4,08
715,47	13,08
715,724	12,08
715,978	15,08
716,233	8,08
716,487	5,08
716,741	11,08
716,995	15,08
717,249	3,08
717,503	5,08
717,757	-2,92
718,011	9,08
718,265	13,08
718,519	-0,92
718,773	1,08
719,027	10,08
719,281	1,08
719,535	-2,92
719,789	-10,92
720,043	3,08
720,297	3,08
720,551	-4,92
720,805	-4,92
721,059	7,08
721,313	5,08
721,567	10,08
721,821	10,08
722,074	-5,92
722,328	0,08
722,582	-6,92
722,836	12,08
723,09	-6,92
723,344	1,08
723,598	6,08
723,851	11,08
724,105	25,08
724,359	9,08
724,613	10,08
724,867	14,08
725,121	-2,92
725,374	28,08
725,628	9,08
725,882	2,08
726,136	13,08
726,389	7,08
726,643	15,08
726,897	4,08
727,151	5,08
727,404	-2,92
727,658	10,08
727,912	13,08
728,165	19,08
728,419	6,08
728,673	-8,92
728,926	-6,92
729,18	8,08
729,434	10,08
729,687	13,08
729,941	-0,92
730,195	13,08
730,448	1,08
730,702	-1,92
730,955	10,08
731,209	16,08
731,462	13,08
731,716	-1,92
731,97	-2,92
732,223	23,08
732,477	6,08
732,73	27,08
732,984	14,08
733,237	17,08
733,491	5,08
733,744	4,08
733,998	9,08
734,251	-1,92
734,505	2,08
734,758	-2,92
735,012	-15,92
735,265	6,08
735,518	9,08
735,772	1,08
736,025	-3,92
736,279	-3,92
736,532	5,08
736,785	4,08
737,039	9,08
737,292	8,08
737,546	4,08
737,799	2,08
738,052	6,08
738,306	7,08
738,559	7,08
738,812	3,08
739,066	-0,92
739,319	5,08
739,572	13,08
739,825	13,08
740,079	6,08
740,332	17,08
740,585	5,08
740,838	2,08
741,092	12,08
741,345	0,08
741,598	6,08
741,851	-0,92
742,104	10,08
742,358	-4,92
742,611	-4,92
742,864	8,08
743,117	-11,92
743,37	21,08
743,623	11,08
743,877	2,08
744,13	4,08
744,383	13,08
744,636	-15,92
744,889	16,08
745,142	11,08
745,395	3,08
745,648	-3,92
745,901	8,08
746,154	13,08
746,408	9,08
746,661	-8,92
746,914	-2,92
747,167	-7,92
747,42	0,08
747,673	8,08
747,926	-10,92
748,179	6,08
748,432	8,08
748,685	14,08
748,938	31,08
749,19	18,08
749,443	9,08
749,696	-13,92
749,949	30,08
750,202	17,08
750,455	4,08
750,708	18,08
750,961	-4,92
751,214	46,08
751,467	3,08
751,719	-5,92
751,972	-3,92
752,225	18,08
752,478	4,08
752,731	2,08
752,984	29,08
753,236	16,08
753,489	8,08
753,742	-2,92
753,995	-0,92
754,248	13,08
754,5	-0,92
754,753	9,08
755,006	24,08
755,259	-3,92
755,511	14,08
755,764	-9,92
756,017	-5,92
756,269	0,08
756,522	8,08
756,775	9,08
757,027	17,08
757,28	-11,92
757,533	-8,92
757,785	0,08
758,038	0,08
758,291	-10,92
758,543	-11,92
758,796	2,08
759,049	16,08
759,301	-9,92
759,554	9,08
759,806	-5,92
760,059	9,08
760,311	13,08
760,564	9,08
760,817	-2,92
761,069	-15,92
761,322	-6,92
761,574	-7,92
761,827	11,08
762,079	8,08
762,332	-6,92
762,584	-9,92
762,837	17,08
763,089	3,08
763,341	15,08
763,594	21,08
763,846	8,08
764,099	-0,92
764,351	23,08
764,604	5,08
764,856	-2,92
765,108	-12,92
765,361	-12,92
765,613	9,08
765,865	-1,92
766,118	9,08
766,37	11,08
766,623	1,08
766,875	-6,92
767,127	3,08
767,379	-3,92
767,632	2,08
767,884	-0,92
768,136	4,08
768,389	4,08
768,641	12,08
768,893	6,08
769,145	11,08
769,398	17,08
769,65	15,08
769,902	1,08
770,154	10,08
770,406	10,08
770,659	-4,92
770,911	8,08
771,163	13,08
771,415	16,08
771,667	41,08
771,919	8,08
772,172	-0,92
772,424	-1,92
772,676	1,08
772,928	16,08
773,18	9,08
773,432	3,08
773,684	-16,92
773,936	1,08
774,188	1,08
774,44	1,08
774,693	3,08
774,945	1,08
775,197	19,08
775,449	1,08
775,701	-0,92
775,953	-7,92
776,205	6,08
776,457	-4,92
776,709	8,08
776,961	3,08
777,213	15,08
777,464	15,08
777,716	7,08
777,968	4,08
778,22	-6,92
778,472	9,08
778,724	10,08
778,976	1,08
779,228	0,08
779,48	-10,92
779,732	19,08
779,984	3,08
780,235	5,08
780,487	-3,92
780,739	12,08
780,991	-18,92
781,243	3,08
781,494	1,08
781,746	4,08
781,998	6,08
782,25	-9,92
782,502	-8,92
782,753	5,08
783,005	-4,92
783,257	4,08
783,509	-7,92
783,76	-12,92
784,012	6,08
784,264	-1,92
784,515	7,08
784,767	7,08
785,019	-9,92
785,271	1,08
785,522	-14,92
785,774	-4,92
786,026	-13,92
786,277	0,08
786,529	4,08
786,78	7,08
787,032	18,08
787,284	-2,92
787,535	3,08
787,787	0,08
788,038	3,08
788,29	3,08
788,541	4,08
788,793	2,08
789,045	-10,92
789,296	2,08
789,548	0,08
789,799	11,08
790,051	7,08
790,302	-9,92
790,554	8,08
790,805	5,08
791,057	12,08
791,308	-1,92
791,559	-5,92
791,811	-6,92
792,062	3,08
792,314	4,08
792,565	17,08
792,817	12,08
793,068	12,08
793,319	-5,92
793,571	8,08
793,822	-0,92
794,073	0,08
794,325	2,08
794,576	7,08
794,827	1,08
795,079	-4,92
795,33	-17,92
795,581	15,08
795,833	3,08
796,084	20,08
796,335	10,08
796,587	2,08
796,838	17,08
797,089	15,08
797,34	7,08
797,592	-5,92
797,843	6,08
798,094	3,08
798,345	5,08
798,596	-4,92
798,848	14,08
799,099	1,08
799,35	-7,92
799,601	2,08
799,852	19,08
800,103	-12,92
800,355	5,08
800,606	61,08
800,857	16,08
801,108	-6,92
801,359	4,08
801,61	3,08
801,861	-18,92
802,112	-7,92
802,363	-13,92
802,614	15,08
802,865	-5,92
803,116	-0,92
803,367	-6,92
803,618	13,08
803,869	3,08
804,12	3,08
804,371	-6,92
804,622	-3,92
804,873	-6,92
805,124	-4,92
805,375	11,08
805,626	0,08
805,877	-6,92
806,128	3,08
806,379	-9,92
806,63	-2,92
806,881	-4,92
807,132	-0,92
807,383	-2,92
807,634	-14,92
807,884	-5,92
808,135	13,08
808,386	6,08
808,637	1,08
808,888	0,08
809,139	-9,92
809,389	2,08
809,64	4,08
809,891	-6,92
810,142	3,08
810,393	-8,92
810,643	0,08
810,894	17,08
811,145	-3,92
811,396	-3,92
811,646	-12,92
811,897	1,08
812,148	17,08
812,398	9,08
812,649	16,08
812,9	6,08
813,151	-0,92
813,401	-9,92
813,652	33,08
813,902	12,08
814,153	-1,92
814,404	17,08
814,654	4,08
814,905	26,08
815,156	3,08
815,406	7,08
815,657	3,08
815,907	-1,92
816,158	-9,92
816,408	-2,92
816,659	-0,92
816,91	-9,92
817,16	-12,92
817,411	-7,92
817,661	2,08
817,912	7,08
818,162	-10,92
818,413	4,08
818,663	-0,92
818,914	1,08
819,164	-13,92
819,414	-6,92
819,665	12,08
819,915	4,08
820,166	5,08
820,416	-2,92
820,667	0,08
820,917	10,08
821,167	6,08
821,418	7,08
821,668	4,08
821,918	4,08
822,169	-6,92
822,419	6,08
822,67	5,08
822,92	-15,92
823,17	6,08
823,42	15,08
823,671	16,08
823,921	1,08
824,171	-9,92
824,422	-8,92
824,672	7,08
824,922	1,08
825,172	-8,92
825,423	2,08
825,673	-1,92
825,923	6,08
826,173	5,08
826,423	-9,92
826,674	-19,92
826,924	-14,92
827,174	2,08
827,424	-0,92
827,674	0,08
827,924	1,08
828,175	-12,92
828,425	-19,92
828,675	-9,92
828,925	-0,92
829,175	17,08
829,425	9,08
829,675	11,08
829,925	-12,92
830,175	1,08
830,425	-13,92
830,675	-1,92
830,925	6,08
831,175	9,08
831,425	-4,92
831,676	-3,92
831,926	1,08
832,175	-17,92
832,425	-11,92
832,675	-2,92
832,925	14,08
833,175	7,08
833,425	-6,92
833,675	-13,92
833,925	17,08
834,175	30,08
834,425	12,08
834,675	9,08
834,925	-14,92
835,175	-6,92
835,425	-17,92
835,674	-22,92
835,924	1,08
836,174	-17,92
836,424	-7,92
836,674	-10,92
836,924	11,08
837,173	9,08
837,423	3,08
837,673	0,08
837,923	-3,92
838,173	-8,92
838,422	9,08
838,672	0,08
838,922	-3,92
839,172	-3,92
839,421	9,08
839,671	4,08
839,921	-14,92
840,17	-3,92
840,42	0,08
840,67	-1,92
840,919	-8,92
841,169	4,08
841,419	11,08
841,668	0,08
841,918	2,08
842,168	4,08
842,417	-6,92
842,667	4,08
842,916	-12,92
843,166	5,08
843,416	-6,92
843,665	17,08
843,915	0,08
844,164	8,08
844,414	11,08
844,663	6,08
844,913	24,08
845,162	5,08
845,412	1,08
845,662	2,08
845,911	6,08
846,16	-18,92
846,41	-12,92
846,659	-9,92
846,909	-6,92
847,158	-15,92
847,408	-2,92
847,657	3,08
847,907	5,08
848,156	0,08
848,405	9,08
848,655	7,08
848,904	-2,92
849,154	-12,92
849,403	-11,92
849,652	3,08
849,902	-7,92
850,151	12,08
850,4	-18,92
850,65	-4,92
850,899	-0,92
851,148	5,08
851,398	-14,92
851,647	19,08
851,896	-3,92
852,145	0,08
852,395	6,08
852,644	-5,92
852,893	-4,92
853,142	9,08
853,392	-5,92
853,641	11,08
853,89	7,08
854,139	4,08
854,388	-3,92
854,637	23,08
854,887	-3,92
855,136	-28,92
855,385	-8,92
855,634	-3,92
855,883	11,08
856,132	-13,92
856,381	-11,92
856,631	-2,92
856,88	5,08
857,129	13,08
857,378	4,08
857,627	-0,92
857,876	2,08
858,125	12,08
858,374	-5,92
858,623	3,08
858,872	-4,92
859,121	7,08
859,37	-6,92
859,619	7,08
859,868	-0,92
860,117	-2,92
860,366	-17,92
860,615	8,08
860,864	-11,92
861,113	1,08
861,362	15,08
861,611	-2,92
861,86	-7,92
862,108	-4,92
862,357	-8,92
862,606	-19,92
862,855	-2,92
863,104	-15,92
863,353	4,08
863,602	-3,92
863,851	43,08
864,099	-2,92
864,348	-8,92
864,597	22,08
864,846	5,08
865,095	-9,92
865,343	-14,92
865,592	6,08
865,841	5,08
866,09	21,08
866,338	16,08
866,587	6,08
866,836	4,08
867,085	-11,92
867,333	-3,92
867,582	-2,92
867,831	16,08
868,079	-0,92
868,328	-1,92
868,577	0,08
868,825	-2,92
869,074	-0,92
869,323	5,08
869,571	-7,92
869,82	-0,92
870,068	-3,92
870,317	-1,92
870,566	3,08
870,814	-17,92
871,063	-8,92
871,311	6,08
871,56	4,08
871,808	-18,92
872,057	6,08
872,306	-2,92
872,554	-1,92
872,803	-10,92
873,051	-9,92
873,3	4,08
873,548	-1,92
873,797	1,08
874,045	-3,92
874,293	7,08
874,542	3,08
874,79	1,08
875,039	-3,92
875,287	1,08
875,536	-13,92
875,784	-3,92
876,032	12,08
876,281	3,08
876,529	12,08
876,777	-0,92
877,026	-1,92
877,274	-3,92
877,523	6,08
877,771	3,08
878,019	1,08
878,267	12,08
878,516	19,08
878,764	-9,92
879,012	15,08
879,261	9,08
879,509	0,08
879,757	-15,92
880,005	14,08
880,254	1,08
880,502	2,08
880,75	-0,92
880,998	12,08
881,246	6,08
881,495	-10,92
881,743	-0,92
881,991	-2,92
882,239	4,08
882,487	7,08
882,735	15,08
882,984	0,08
883,232	12,08
883,48	-6,92
883,728	16,08
883,976	5,08
884,224	-13,92
884,472	2,08
884,72	-0,92
884,968	8,08
885,216	3,08
885,464	3,08
885,712	-9,92
885,96	5,08
886,208	5,08
886,457	-11,92
886,704	1,08
886,952	-19,92
887,2	7,08
887,448	-5,92
887,696	-16,92
887,944	-3,92
888,192	11,08
888,44	-4,92
888,688	5,08
888,936	14,08
889,184	14,08
889,432	7,08
889,68	-3,92
889,928	-5,92
890,175	6,08
890,423	3,08
890,671	-0,92
890,919	22,08
891,167	24,08
891,415	1,08
891,663	4,08
891,91	1,08
892,158	0,08
892,406	-2,92
892,654	-11,92
892,901	-0,92
893,149	1,08
893,397	-1,92
893,645	-0,92
893,892	0,08
894,14	1,08
894,388	-5,92
894,636	10,08
894,883	-3,92
895,131	0,08
895,379	-2,92
895,626	-13,92
895,874	-3,92
896,122	-5,92
896,369	0,08
896,617	-20,92
896,864	3,08
897,112	11,08
897,36	-1,92
897,607	6,08
897,855	7,08
898,102	0,08
898,35	3,08
898,598	7,08
898,845	0,08
899,093	-1,92
899,34	-2,92
899,588	10,08
899,835	-1,92
900,083	9,08
900,33	1,08
900,578	-1,92
900,825	11,08
901,073	-8,92
901,32	3,08
901,568	-0,92
901,815	0,08
902,062	-2,92
902,31	-0,92
902,557	12,08
902,805	65,08
903,052	5,08
903,299	-8,92
903,547	4,08
903,794	3,08
904,042	1,08
904,289	-3,92
904,536	-4,92
904,784	-1,92
905,031	-2,92
905,278	9,08
905,525	-4,92
905,773	-10,92
906,02	8,08
906,267	5,08
906,515	17,08
906,762	-6,92
907,009	7,08
907,256	1,08
907,504	8,08
907,751	4,08
907,998	3,08
908,245	-13,92
908,492	-24,92
908,74	10,08
908,987	19,08
909,234	-4,92
909,481	-0,92
909,728	-8,92
909,975	-4,92
910,222	7,08
910,47	-13,92
910,717	-18,92
910,964	2,08
911,211	0,08
911,458	-0,92
911,705	10,08
911,952	-0,92
912,199	9,08
912,446	9,08
912,693	19,08
912,94	-5,92
913,187	6,08
913,434	11,08
913,681	2,08
913,928	4,08
914,175	-11,92
914,422	-1,92
914,669	8,08
914,916	2,08
915,163	7,08
915,41	-7,92
915,657	1,08
915,904	4,08
916,151	0,08
916,398	26,08
916,644	-4,92
916,891	-9,92
917,138	11,08
917,385	23,08
917,632	-6,92
917,879	-1,92
918,126	-0,92
918,372	6,08
918,619	3,08
918,866	9,08
919,113	13,08
919,36	-14,92
919,606	6,08
919,853	-3,92
920,1	-5,92
920,347	-4,92
920,593	-7,92
920,84	10,08
921,087	12,08
921,334	1,08
921,58	15,08
921,827	12,08
922,074	0,08
922,32	3,08
922,567	3,08
922,814	-0,92
923,06	12,08
923,307	8,08
923,554	11,08
923,8	1,08
924,047	6,08
924,293	-10,92
924,54	7,08
924,787	-5,92
925,033	-7,92
925,28	2,08
925,526	10,08
925,773	8,08
926,019	-3,92
926,266	1,08
926,512	-4,92
926,759	-3,92
927,005	13,08
927,252	6,08
927,498	-7,92
927,745	-15,92
927,991	0,08
928,238	-7,92
928,484	19,08
928,731	0,08
928,977	0,08
929,223	24,08
929,47	7,08
929,716	-23,92
929,963	9,08
930,209	0,08
930,455	19,08
930,702	4,08
930,948	-2,92
931,194	-11,92
931,441	11,08
931,687	-14,92
931,933	14,08
932,18	-5,92
932,426	2,08
932,672	11,08
932,919	9,08
933,165	3,08
933,411	13,08
933,657	3,08
933,904	6,08
934,15	-8,92
934,396	3,08
934,642	5,08
934,889	-0,92
935,135	-3,92
935,381	9,08
935,627	1,08
935,873	-0,92
936,119	3,08
936,366	9,08
936,612	6,08
936,858	6,08
937,104	11,08
937,35	17,08
937,596	14,08
937,842	-0,92
938,088	0,08
938,334	11,08
938,58	8,08
938,827	8,08
939,073	6,08
939,319	-14,92
939,565	9,08
939,811	26,08
940,057	4,08
940,303	4,08
940,549	5,08
940,795	9,08
941,041	1,08
941,287	8,08
941,533	23,08
941,778	5,08
942,024	7,08
942,27	5,08
942,516	11,08
942,762	5,08
943,008	6,08
943,254	23,08
943,5	-8,92
943,746	6,08
943,992	17,08
944,237	13,08
944,483	11,08
944,729	13,08
944,975	8,08
945,221	-2,92
945,467	6,08
945,712	-7,92
945,958	13,08
946,204	10,08
946,45	6,08
946,695	-9,92
946,941	10,08
947,187	29,08
947,433	2,08
947,678	8,08
947,924	0,08
948,17	4,08
948,415	5,08
948,661	11,08
948,907	3,08
949,153	7,08
949,398	13,08
949,644	12,08
949,889	11,08
950,135	0,08
950,381	13,08
950,626	2,08
950,872	-0,92
951,118	12,08
951,363	-4,92
951,609	17,08
951,854	2,08
952,1	-16,92
952,345	-11,92
952,591	6,08
952,836	-0,92
953,082	0,08
953,327	12,08
953,573	-3,92
953,818	14,08
954,064	3,08
954,309	12,08
954,555	-9,92
954,8	5,08
955,046	-13,92
955,291	-2,92
955,537	-8,92
955,782	-0,92
956,027	8,08
956,273	5,08
956,518	19,08
956,764	16,08
957,009	-0,92
957,254	5,08
957,5	-1,92
957,745	-2,92
957,99	-9,92
958,236	0,08
958,481	0,08
958,726	20,08
958,972	5,08
959,217	-6,92
959,462	15,08
959,707	14,08
959,953	17,08
960,198	4,08
960,443	11,08
960,688	12,08
960,934	13,08
961,179	8,08
961,424	1,08
961,669	1,08
961,914	-4,92
962,16	9,08
962,405	10,08
962,65	2,08
962,895	3,08
963,14	2,08
963,385	7,08
963,63	3,08
963,876	7,08
964,121	3,08
964,366	15,08
964,611	21,08
964,856	10,08
965,101	5,08
965,346	8,08
965,591	-13,92
965,836	-3,92
966,081	-12,92
966,326	7,08
966,571	2,08
966,816	13,08
967,061	9,08
967,306	2,08
967,551	10,08
967,796	-4,92
968,041	-0,92
968,286	4,08
968,531	6,08
968,776	-6,92
969,021	-0,92
969,266	16,08
969,511	8,08
969,755	-4,92
970	-7,92
970,245	12,08
970,49	9,08
970,735	13,08
970,98	0,08
971,225	-13,92
971,469	-4,92
971,714	6,08
971,959	2,08
972,204	-8,92
972,449	-15,92
972,693	3,08
972,938	0,08
973,183	0,08
973,428	-7,92
973,672	-2,92
973,917	-0,92
974,162	9,08
974,407	1,08
974,651	11,08
974,896	2,08
975,141	4,08
975,385	-13,92
975,63	-3,92
975,875	-7,92
976,119	51,08
976,364	12,08
976,608	5,08
976,853	12,08
977,098	3,08
977,342	-5,92
977,587	14,08
977,831	19,08
978,076	-2,92
978,321	11,08
978,565	8,08
978,81	1,08
979,054	1,08
979,299	-7,92
979,543	8,08
979,788	-2,92
980,032	-3,92
980,277	17,08
980,521	15,08
980,766	4,08
981,01	1,08
981,255	0,08
981,499	4,08
981,743	-1,92
981,988	-6,92
982,232	9,08
982,477	21,08
982,721	13,08
982,965	8,08
983,21	-3,92
983,454	2,08
983,699	0,08
983,943	9,08
984,187	17,08
984,432	2,08
984,676	20,08
984,92	26,08
985,165	16,08
985,409	2,08
985,653	-0,92
985,897	0,08
986,142	0,08
986,386	10,08
986,63	3,08
986,874	1,08
987,119	-3,92
987,363	5,08
987,607	10,08
987,851	-10,92
988,095	19,08
988,34	-16,92
988,584	4,08
988,828	-8,92
989,072	-8,92
989,316	-2,92
989,56	8,08
989,804	6,08
990,049	-8,92
990,293	-8,92
990,537	-19,92
990,781	-4,92
991,025	1,08
991,269	-0,92
991,513	7,08
991,757	13,08
992,001	-9,92
992,245	-4,92
992,489	6,08
992,733	5,08
992,977	-8,92
993,221	-10,92
993,465	-25,92
993,709	-10,92
993,953	-4,92
994,197	-3,92
994,441	11,08
994,685	-7,92
994,929	16,08
995,173	4,08
995,417	1,08
995,661	-4,92
995,904	12,08
996,148	-7,92
996,392	-19,92
996,636	-10,92
996,88	3,08
997,124	3,08
997,368	-0,92
997,611	17,08
997,855	7,08
998,099	16,08
998,343	13,08
998,587	5,08
998,83	-0,92
999,074	1,08
999,318	19,08
999,562	-6,92
999,805	11,08
1000,049	-4,92
1000,293	5,08
1000,537	15,08
1000,78	-0,92
1001,024	-2,92
1001,268	-2,92
1001,511	9,08
1001,755	-8,92
1001,999	-9,92
1002,242	-7,92
1002,486	13,08
1002,73	-1,92
1002,973	12,08
1003,217	12,08
1003,46	-10,92
1003,704	1,08
1003,948	11,08
1004,191	9,08
1004,435	5,08
1004,678	3,08
1004,922	1,08
1005,165	-2,92
1005,409	12,08
1005,652	2,08
1005,896	14,08
1006,139	-1,92
1006,383	-5,92
1006,626	0,08
1006,87	3,08
1007,113	-12,92
1007,357	10,08
1007,6	-2,92
1007,844	-4,92
1008,087	-3,92
1008,33	-10,92
1008,574	-4,92
1008,817	2,08
1009,061	-3,92
1009,304	1,08
1009,547	-3,92
1009,791	12,08
1010,034	-0,92
1010,277	2,08
1010,521	-1,92
1010,764	-1,92
1011,007	-8,92
1011,251	-1,92
1011,494	-10,92
1011,737	2,08
1011,98	3,08
1012,224	11,08
1012,467	9,08
1012,71	-7,92
1012,953	-4,92
1013,197	-9,92
1013,44	-3,92
1013,683	8,08
1013,926	0,08
1014,169	0,08
1014,413	-4,92
1014,656	-9,92
1014,899	-14,92
1015,142	12,08
1015,385	12,08
1015,628	17,08
1015,871	0,08
1016,115	-2,92
1016,358	8,08
1016,601	-3,92
1016,844	1,08
1017,087	-17,92
1017,33	-8,92
1017,573	11,08
1017,816	-6,92
1018,059	12,08
1018,302	8,08
1018,545	10,08
1018,788	-8,92
1019,031	-3,92
1019,274	-7,92
1019,517	-1,92
1019,76	-2,92
1020,003	-1,92
1020,246	-8,92
1020,489	-16,92
1020,732	-8,92
1020,975	-4,92
1021,218	2,08
1021,461	-2,92
1021,703	-7,92
1021,946	-1,92
1022,189	4,08
1022,432	-19,92
1022,675	16,08
1022,918	18,08
1023,161	5,08
1023,403	-7,92
1023,646	4,08
1023,889	-0,92
1024,132	9,08
1024,375	16,08
1024,617	-0,92
1024,86	-9,92
1025,103	-8,92
1025,346	-5,92
1025,588	-2,92
1025,831	1,08
1026,074	4,08
1026,317	-0,92
1026,559	3,08
1026,802	-10,92
1027,045	-4,92
1027,287	4,08
1027,53	5,08
1027,773	-8,92
1028,015	0,08
1028,258	-2,92
1028,501	-6,92
1028,743	6,08
1028,986	2,08
1029,228	26,08
1029,471	3,08
1029,714	-1,92
1029,956	-1,92
1030,199	2,08
1030,441	-8,92
1030,684	4,08
1030,926	7,08
1031,169	-9,92
1031,411	12,08
1031,654	6,08
1031,896	-1,92
1032,139	-3,92
1032,381	0,08
1032,624	-13,92
1032,866	12,08
1033,109	7,08
1033,351	15,08
1033,594	-9,92
1033,836	-3,92
1034,079	-3,92
1034,321	2,08
1034,563	-6,92
1034,806	-0,92
1035,048	1,08
1035,29	-0,92
1035,533	5,08
1035,775	-8,92
1036,018	12,08
1036,26	1,08
1036,502	23,08
1036,744	-0,92
1036,987	-10,92
1037,229	-15,92
1037,471	-3,92
1037,714	15,08
1037,956	-4,92
1038,198	-7,92
1038,44	-6,92
1038,683	-1,92
1038,925	3,08
1039,167	0,08
1039,409	0,08
1039,651	12,08
1039,894	9,08
1040,136	-8,92
1040,378	11,08
1040,62	14,08
1040,862	3,08
1041,104	13,08
1041,347	-1,92
1041,589	-12,92
1041,831	-0,92
1042,073	-0,92
1042,315	3,08
1042,557	1,08
1042,799	6,08
1043,041	7,08
1043,283	-14,92
1043,525	5,08
1043,767	12,08
1044,009	-3,92
1044,251	-14,92
1044,493	-15,92
1044,735	-4,92
1044,977	-12,92
1045,219	-3,92
1045,461	0,08
1045,703	-8,92
1045,945	15,08
1046,187	-4,92
1046,429	4,08
1046,671	-14,92
1046,913	15,08
1047,155	-0,92
1047,397	16,08
1047,639	12,08
1047,881	11,08
1048,122	1,08
1048,364	10,08
1048,606	7,08
1048,848	-2,92
1049,09	-8,92
1049,332	-1,92
1049,573	-7,92
1049,815	1,08
1050,057	3,08
1050,299	-9,92
1050,541	3,08
1050,782	14,08
1051,024	-16,92
1051,266	4,08
1051,508	13,08
1051,749	8,08
1051,991	5,08
1052,233	18,08
1052,474	3,08
1052,716	9,08
1052,958	11,08
1053,199	0,08
1053,441	-6,92
1053,683	7,08
1053,924	-1,92
1054,166	-3,92
1054,408	-5,92
1054,649	-18,92
1054,891	0,08
1055,132	-6,92
1055,374	1,08
1055,616	1,08
1055,857	-3,92
1056,099	-2,92
1056,34	2,08
1056,582	-16,92
1056,823	-0,92
1057,065	2,08
1057,306	4,08
1057,548	9,08
1057,789	-4,92
1058,031	11,08
1058,272	-3,92
1058,514	-3,92
1058,755	3,08
1058,997	3,08
1059,238	-1,92
1059,479	1,08
1059,721	5,08
1059,962	-8,92
1060,204	-1,92
1060,445	-10,92
1060,686	-18,92
1060,928	-8,92
1061,169	-6,92
1061,41	-10,92
1061,652	6,08
1061,893	-3,92
1062,134	18,08
1062,376	-10,92
1062,617	-7,92
1062,858	2,08
1063,1	3,08
1063,341	-4,92
1063,582	-7,92
1063,823	-11,92
1064,065	-1,92
1064,306	-4,92
1064,547	21,08
1064,788	1,08
1065,029	0,08
1065,271	-2,92
1065,512	-17,92
1065,753	-12,92
1065,994	9,08
1066,235	-3,92
1066,476	-0,92
1066,718	0,08
1066,959	16,08
1067,2	-8,92
1067,441	13,08
1067,682	4,08
1067,923	-2,92
1068,164	-1,92
1068,405	-0,92
1068,646	-3,92
1068,887	11,08
1069,128	3,08
1069,369	12,08
1069,61	-4,92
1069,851	11,08
1070,092	9,08
1070,333	-2,92
1070,574	-10,92
1070,815	-11,92
1071,056	3,08
1071,297	-2,92
1071,538	7,08
1071,779	-0,92
1072,02	-9,92
1072,261	16,08
1072,502	-4,92
1072,743	4,08
1072,984	11,08
1073,225	-1,92
1073,466	-10,92
1073,706	-2,92
1073,947	0,08
1074,188	9,08
1074,429	4,08
1074,67	-6,92
1074,911	-13,92
1075,151	9,08
1075,392	-12,92
1075,633	12,08
1075,874	-2,92
1076,114	-7,92
1076,355	-3,92
1076,596	7,08
1076,837	9,08
1077,077	-2,92
1077,318	-10,92
1077,559	5,08
1077,8	18,08
1078,04	3,08
1078,281	2,08
1078,522	-6,92
1078,762	5,08
1079,003	7,08
1079,244	3,08
1079,484	4,08
1079,725	1,08
1079,965	-1,92
1080,206	-8,92
1080,447	15,08
1080,687	5,08
1080,928	5,08
1081,168	-3,92
1081,409	0,08
1081,649	-3,92
1081,89	-10,92
1082,131	0,08
1082,371	-4,92
1082,612	3,08
1082,852	-10,92
1083,093	9,08
1083,333	4,08
1083,573	4,08
1083,814	8,08
1084,054	-2,92
1084,295	27,08
1084,535	6,08
1084,776	0,08
1085,016	3,08
1085,257	-8,92
1085,497	-1,92
1085,737	15,08
1085,978	3,08
1086,218	3,08
1086,458	9,08
1086,699	9,08
1086,939	-3,92
1087,179	-2,92
1087,42	-0,92
1087,66	1,08
1087,9	-2,92
1088,141	2,08
1088,381	-11,92
1088,621	1,08
1088,861	4,08
1089,102	9,08
1089,342	12,08
1089,582	3,08
1089,822	4,08
1090,063	-9,92
1090,303	3,08
1090,543	14,08
1090,783	7,08
1091,023	-1,92
1091,263	-16,92
1091,504	-3,92
1091,744	3,08
1091,984	6,08
1092,224	-2,92
1092,464	2,08
1092,704	-7,92
1092,944	-4,92
1093,184	-10,92
1093,425	12,08
1093,665	-8,92
1093,905	5,08
1094,145	9,08
1094,385	16,08
1094,625	-7,92
1094,865	1,08
1095,105	0,08
1095,345	5,08
1095,585	-2,92
1095,825	-5,92
1096,065	4,08
1096,305	8,08
1096,545	5,08
1096,785	3,08
1097,025	1,08
1097,265	-14,92
1097,504	8,08
1097,744	-11,92
1097,984	11,08
1098,224	9,08
1098,464	-7,92
1098,704	5,08
1098,944	8,08
1099,184	11,08
1099,423	0,08
1099,663	-8,92
1099,903	-16,92
1100,143	0,08
1100,383	-3,92
1100,622	-9,92
1100,862	3,08
1101,102	-3,92
1101,342	1,08
1101,582	-2,92
1101,821	1,08
1102,061	5,08
1102,301	6,08
1102,54	12,08
1102,78	9,08
1103,02	-17,92
1103,26	-12,92
1103,499	-10,92
1103,739	9,08
1103,979	1,08
1104,218	14,08
1104,458	2,08
1104,697	-0,92
1104,937	1,08
1105,177	3,08
1105,416	-4,92
1105,656	0,08
1105,896	-2,92
1106,135	2,08
1106,375	1,08
1106,614	11,08
1106,854	3,08
1107,093	5,08
1107,333	5,08
1107,572	-8,92
1107,812	-10,92
1108,051	8,08
1108,291	-14,92
1108,53	-4,92
1108,77	1,08
1109,009	7,08
1109,249	2,08
1109,488	-3,92
1109,728	-2,92
1109,967	11,08
1110,206	5,08
1110,446	3,08
1110,685	-11,92
1110,925	13,08
1111,164	19,08
1111,403	20,08
1111,643	-2,92
1111,882	-0,92
1112,121	-20,92
1112,361	13,08
1112,6	7,08
1112,839	13,08
1113,079	-2,92
1113,318	0,08
1113,557	2,08
1113,796	11,08
1114,036	1,08
1114,275	-2,92
1114,514	17,08
1114,753	13,08
1114,993	15,08
1115,232	-10,92
1115,471	-19,92
1115,71	5,08
1115,949	2,08
1116,188	-10,92
1116,428	8,08
1116,667	10,08
1116,906	-6,92
1117,145	8,08
1117,384	15,08
1117,623	-0,92
1117,862	4,08
1118,101	-4,92
1118,341	11,08
1118,58	5,08
1118,819	11,08
1119,058	-3,92
1119,297	-0,92
1119,536	11,08
1119,775	-4,92
1120,014	-18,92
1120,253	-3,92
1120,492	-0,92
1120,731	2,08
1120,97	8,08
1121,209	7,08
1121,448	1,08
1121,687	-2,92
1121,926	15,08
1122,165	-7,92
1122,404	-1,92
1122,642	5,08
1122,881	-8,92
1123,12	8,08
1123,359	-1,92
1123,598	1,08
1123,837	-0,92
1124,076	0,08
1124,315	12,08
1124,553	21,08
1124,792	-0,92
1125,031	6,08
1125,27	-0,92
1125,509	-8,92
1125,747	20,08
1125,986	10,08
1126,225	4,08
