Data from HR4C34221__0__15-06-08-775.txt Node

Date: Fri Apr 07 15:06:08 MSK 2023
User: 123
Spectrometer: HR4C3422
Trigger mode: 4
Integration Time (sec): 4,000000E-2
Scans to average: 1
Electric dark correction enabled: true
Nonlinearity correction enabled: false
Boxcar width: 0
XAxis mode: Wavelengths
Number of Pixels in Spectrum: 3648
>>>>>Begin Spectral Data<<<<<
195,326	-14,92
195,597	-14,92
195,868	-14,92
196,139	-26,92
196,409	4,08
196,68	-5,92
196,951	-6,92
197,221	-8,92
197,492	18,08
197,762	-4,92
198,033	-13,92
198,304	3,08
198,574	2,08
198,845	6,08
199,116	5,08
199,386	1,08
199,657	-0,92
199,927	6,08
200,198	-3,92
200,468	-2,92
200,739	2,08
201,009	0,08
201,28	12,08
201,551	-1,92
201,821	-5,92
202,092	3,08
202,362	-3,92
202,633	4,08
202,903	5,08
203,174	4,08
203,444	-9,92
203,714	5,08
203,985	2,08
204,255	-7,92
204,526	31,08
204,796	7,08
205,067	-3,92
205,337	-5,92
205,607	0,08
205,878	27,08
206,148	4,08
206,419	-4,92
206,689	-19,92
206,959	-3,92
207,23	-9,92
207,5	-6,92
207,77	-10,92
208,041	1,08
208,311	-3,92
208,581	-0,92
208,852	4,08
209,122	2,08
209,392	-5,92
209,663	-1,92
209,933	4,08
210,203	-2,92
210,473	-10,92
210,744	-2,92
211,014	5,08
211,284	-3,92
211,554	9,08
211,825	4,08
212,095	-2,92
212,365	-3,92
212,635	0,08
212,905	-5,92
213,176	-11,92
213,446	2,08
213,716	-3,92
213,986	-1,92
214,256	2,08
214,526	-4,92
214,797	-1,92
215,067	-4,92
215,337	8,08
215,607	0,08
215,877	-9,92
216,147	-5,92
216,417	10,08
216,687	0,08
216,957	5,08
217,227	-5,92
217,497	-27,92
217,767	-12,92
218,038	11,08
218,308	0,08
218,578	10,08
218,848	-11,92
219,118	10,08
219,388	6,08
219,658	3,08
219,928	3,08
220,198	-8,92
220,468	-8,92
220,737	-9,92
221,007	4,08
221,277	6,08
221,547	2,08
221,817	10,08
222,087	-12,92
222,357	4,08
222,627	8,08
222,897	8,08
223,167	5,08
223,437	14,08
223,707	3,08
223,976	5,08
224,246	-2,92
224,516	-4,92
224,786	0,08
225,056	-0,92
225,326	3,08
225,595	-11,92
225,865	7,08
226,135	-0,92
226,405	6,08
226,675	-3,92
226,944	13,08
227,214	-0,92
227,484	-4,92
227,754	4,08
228,023	-11,92
228,293	-13,92
228,563	4,08
228,833	-7,92
229,102	-4,92
229,372	-2,92
229,642	8,08
229,911	2,08
230,181	11,08
230,451	-4,92
230,72	-3,92
230,99	3,08
231,26	-1,92
231,529	3,08
231,799	3,08
232,069	-3,92
232,338	15,08
232,608	5,08
232,877	3,08
233,147	-3,92
233,417	0,08
233,686	-7,92
233,956	1,08
234,225	5,08
234,495	-22,92
234,764	13,08
235,034	13,08
235,304	10,08
235,573	39,08
235,843	-0,92
236,112	-10,92
236,382	-2,92
236,651	-14,92
236,921	3,08
237,19	6,08
237,46	-2,92
237,729	-3,92
237,998	10,08
238,268	15,08
238,537	11,08
238,807	-8,92
239,076	-8,92
239,346	-4,92
239,615	-2,92
239,884	-1,92
240,154	-4,92
240,423	-8,92
240,693	-13,92
240,962	7,08
241,231	-3,92
241,501	3,08
241,77	-14,92
242,039	-16,92
242,309	-6,92
242,578	-6,92
242,847	-5,92
243,116	-3,92
243,386	-3,92
243,655	-7,92
243,924	-0,92
244,194	-6,92
244,463	4,08
244,732	2,08
245,001	2,08
245,271	32,08
245,54	9,08
245,809	15,08
246,078	-11,92
246,347	1,08
246,617	-11,92
246,886	2,08
247,155	13,08
247,424	2,08
247,693	-1,92
247,963	8,08
248,232	-5,92
248,501	12,08
248,77	0,08
249,039	2,08
249,308	4,08
249,577	-14,92
249,846	-0,92
250,115	4,08
250,385	7,08
250,654	-2,92
250,923	13,08
251,192	-1,92
251,461	-6,92
251,73	-0,92
251,999	-7,92
252,268	6,08
252,537	8,08
252,806	-5,92
253,075	3,08
253,344	10,08
253,613	10,08
253,882	-5,92
254,151	4,08
254,42	-3,92
254,689	-7,92
254,958	-10,92
255,227	0,08
255,496	-3,92
255,765	-2,92
256,033	-5,92
256,302	-1,92
256,571	5,08
256,84	-10,92
257,109	-11,92
257,378	1,08
257,647	-5,92
257,916	10,08
258,184	9,08
258,453	-2,92
258,722	1,08
258,991	-0,92
259,26	-2,92
259,529	-0,92
259,797	5,08
260,066	-11,92
260,335	8,08
260,604	15,08
260,873	-5,92
261,141	13,08
261,41	-4,92
261,679	16,08
261,948	4,08
262,216	-1,92
262,485	10,08
262,754	3,08
263,022	15,08
263,291	-1,92
263,56	2,08
263,829	-24,92
264,097	3,08
264,366	-3,92
264,635	2,08
264,903	-6,92
265,172	2,08
265,44	-4,92
265,709	6,08
265,978	-4,92
266,246	0,08
266,515	-4,92
266,784	-6,92
267,052	-2,92
267,321	-7,92
267,589	42,08
267,858	7,08
268,126	-11,92
268,395	-0,92
268,663	2,08
268,932	10,08
269,201	3,08
269,469	-2,92
269,738	-7,92
270,006	-8,92
270,275	3,08
270,543	-2,92
270,811	2,08
271,08	2,08
271,348	10,08
271,617	-5,92
271,885	0,08
272,154	-14,92
272,422	-9,92
272,691	3,08
272,959	-6,92
273,227	-7,92
273,496	6,08
273,764	-9,92
274,033	-1,92
274,301	-8,92
274,569	1,08
274,838	-1,92
275,106	3,08
275,374	-7,92
275,643	6,08
275,911	8,08
276,179	-2,92
276,448	-10,92
276,716	-9,92
276,984	-11,92
277,252	-2,92
277,521	-5,92
277,789	-12,92
278,057	-1,92
278,325	-6,92
278,594	-4,92
278,862	-3,92
279,13	-23,92
279,398	-7,92
279,667	6,08
279,935	0,08
280,203	6,08
280,471	4,08
280,739	2,08
281,008	-9,92
281,276	-5,92
281,544	-1,92
281,812	-13,92
282,08	7,08
282,348	10,08
282,616	5,08
282,884	-14,92
283,153	5,08
283,421	-0,92
283,689	-3,92
283,957	-4,92
284,225	7,08
284,493	1,08
284,761	1,08
285,029	-11,92
285,297	-11,92
285,565	-6,92
285,833	-1,92
286,101	-0,92
286,369	-4,92
286,637	-11,92
286,905	-19,92
287,173	-9,92
287,441	-9,92
287,709	12,08
287,977	1,08
288,245	-8,92
288,513	-15,92
288,781	-8,92
289,049	-2,92
289,317	-3,92
289,585	2,08
289,853	-1,92
290,12	1,08
290,388	-14,92
290,656	-1,92
290,924	-16,92
291,192	-5,92
291,46	-10,92
291,728	-8,92
291,996	2,08
292,263	-18,92
292,531	-9,92
292,799	-9,92
293,067	-1,92
293,335	4,08
293,602	-11,92
293,87	-9,92
294,138	2,08
294,406	1,08
294,673	-1,92
294,941	-1,92
295,209	-1,92
295,477	-7,92
295,744	-8,92
296,012	-13,92
296,28	-0,92
296,548	-9,92
296,815	-14,92
297,083	-0,92
297,351	4,08
297,618	-4,92
297,886	3,08
298,154	-0,92
298,421	-3,92
298,689	-5,92
298,956	-6,92
299,224	-16,92
299,492	-1,92
299,759	-2,92
300,027	12,08
300,294	-0,92
300,562	-3,92
300,83	-0,92
301,097	-1,92
301,365	-5,92
301,632	-18,92
301,9	1,08
302,167	-2,92
302,435	6,08
302,702	4,08
302,97	-7,92
303,237	-1,92
303,505	4,08
303,772	-3,92
304,04	-1,92
304,307	1,08
304,575	-19,92
304,842	0,08
305,11	18,08
305,377	2,08
305,645	-2,92
305,912	-8,92
306,179	-0,92
306,447	0,08
306,714	1,08
306,982	-1,92
307,249	-1,92
307,516	-1,92
307,784	-14,92
308,051	-21,92
308,318	9,08
308,586	2,08
308,853	-7,92
309,12	-5,92
309,388	-3,92
309,655	1,08
309,922	-10,92
310,19	1,08
310,457	1,08
310,724	-2,92
310,991	12,08
311,259	-9,92
311,526	-12,92
311,793	-0,92
312,06	-4,92
312,328	3,08
312,595	-5,92
312,862	-12,92
313,129	4,08
313,396	-2,92
313,664	0,08
313,931	2,08
314,198	5,08
314,465	-5,92
314,732	-7,92
314,999	-2,92
315,266	-9,92
315,534	-17,92
315,801	-5,92
316,068	-3,92
316,335	-9,92
316,602	-7,92
316,869	-9,92
317,136	0,08
317,403	4,08
317,67	7,08
317,937	3,08
318,204	-5,92
318,471	4,08
318,738	-10,92
319,005	-8,92
319,272	-2,92
319,539	-15,92
319,806	-7,92
320,073	5,08
320,34	-5,92
320,607	11,08
320,874	3,08
321,141	3,08
321,408	7,08
321,675	1,08
321,942	2,08
322,209	0,08
322,476	-5,92
322,743	3,08
323,01	-8,92
323,277	-7,92
323,544	2,08
323,81	4,08
324,077	4,08
324,344	4,08
324,611	12,08
324,878	1,08
325,145	-6,92
325,412	3,08
325,678	-9,92
325,945	-6,92
326,212	-16,92
326,479	14,08
326,746	2,08
327,012	6,08
327,279	-17,92
327,546	0,08
327,813	0,08
328,079	-1,92
328,346	-15,92
328,613	-1,92
328,88	-4,92
329,146	-11,92
329,413	-11,92
329,68	-0,92
329,946	-12,92
330,213	-5,92
330,48	-2,92
330,746	-5,92
331,013	6,08
331,28	0,08
331,546	1,08
331,813	1,08
332,08	2,08
332,346	4,08
332,613	-14,92
332,879	-14,92
333,146	-17,92
333,413	-2,92
333,679	-7,92
333,946	-7,92
334,212	9,08
334,479	5,08
334,745	7,08
335,012	-3,92
335,278	-0,92
335,545	-11,92
335,811	-16,92
336,078	6,08
336,344	-6,92
336,611	-21,92
336,877	-7,92
337,144	-9,92
337,41	-1,92
337,677	2,08
337,943	1,08
338,21	5,08
338,476	-3,92
338,742	1,08
339,009	-3,92
339,275	-13,92
339,542	-20,92
339,808	1,08
340,074	-3,92
340,341	-3,92
340,607	-19,92
340,873	3,08
341,14	-5,92
341,406	-2,92
341,672	-4,92
341,939	2,08
342,205	8,08
342,471	1,08
342,738	-6,92
343,004	-8,92
343,27	9,08
343,537	-5,92
343,803	-11,92
344,069	10,08
344,335	-10,92
344,602	-10,92
344,868	4,08
345,134	0,08
345,4	8,08
345,666	6,08
345,933	-2,92
346,199	-6,92
346,465	-3,92
346,731	-3,92
346,997	-5,92
347,263	-3,92
347,53	7,08
347,796	-5,92
348,062	3,08
348,328	14,08
348,594	-8,92
348,86	2,08
349,126	0,08
349,392	-1,92
349,659	5,08
349,925	-12,92
350,191	-6,92
350,457	-2,92
350,723	-11,92
350,989	2,08
351,255	-4,92
351,521	8,08
351,787	-3,92
352,053	-0,92
352,319	-4,92
352,585	-6,92
352,851	-7,92
353,117	-15,92
353,383	-10,92
353,649	-8,92
353,915	-6,92
354,181	6,08
354,447	4,08
354,713	-5,92
354,978	3,08
355,244	9,08
355,51	1,08
355,776	5,08
356,042	-4,92
356,308	3,08
356,574	-0,92
356,84	0,08
357,106	-8,92
357,371	-12,92
357,637	3,08
357,903	-7,92
358,169	-11,92
358,435	-2,92
358,701	-9,92
358,966	-14,92
359,232	-3,92
359,498	-3,92
359,764	8,08
360,029	7,08
360,295	1,08
360,561	2,08
360,827	-6,92
361,092	-0,92
361,358	-9,92
361,624	-1,92
361,89	-7,92
362,155	-1,92
362,421	-4,92
362,687	-12,92
362,952	-5,92
363,218	2,08
363,484	-10,92
363,749	-6,92
364,015	-5,92
364,281	-2,92
364,546	-9,92
364,812	-9,92
365,077	-4,92
365,343	13,08
365,609	-7,92
365,874	-11,92
366,14	-16,92
366,405	-0,92
366,671	-7,92
366,936	-0,92
367,202	-18,92
367,467	-0,92
367,733	-12,92
367,999	13,08
368,264	5,08
368,53	2,08
368,795	-9,92
369,061	1,08
369,326	6,08
369,591	-11,92
369,857	-2,92
370,122	-14,92
370,388	-2,92
370,653	-14,92
370,919	-9,92
371,184	-14,92
371,45	-11,92
371,715	-2,92
371,98	2,08
372,246	-8,92
372,511	6,08
372,776	3,08
373,042	8,08
373,307	-3,92
373,573	6,08
373,838	1,08
374,103	5,08
374,369	1,08
374,634	-5,92
374,899	6,08
375,164	2,08
375,43	-5,92
375,695	14,08
375,96	4,08
376,226	3,08
376,491	-2,92
376,756	-3,92
377,021	7,08
377,286	-2,92
377,552	-2,92
377,817	-9,92
378,082	3,08
378,347	15,08
378,613	-2,92
378,878	6,08
379,143	-13,92
379,408	-7,92
379,673	-5,92
379,938	-12,92
380,203	-9,92
380,469	-15,92
380,734	12,08
380,999	10,08
381,264	-0,92
381,529	1,08
381,794	-5,92
382,059	-1,92
382,324	17,08
382,589	4,08
382,854	-0,92
383,119	-5,92
383,385	3,08
383,65	-15,92
383,915	10,08
384,18	-4,92
384,445	-22,92
384,71	-1,92
384,975	3,08
385,24	-4,92
385,505	12,08
385,77	4,08
386,034	7,08
386,299	0,08
386,564	-6,92
386,829	-3,92
387,094	7,08
387,359	2,08
387,624	-0,92
387,889	-0,92
388,154	-4,92
388,419	-5,92
388,684	-1,92
388,949	8,08
389,213	4,08
389,478	-5,92
389,743	-9,92
390,008	-2,92
390,273	3,08
390,538	-8,92
390,802	-9,92
391,067	3,08
391,332	-14,92
391,597	-5,92
391,862	-1,92
392,126	1,08
392,391	1,08
392,656	-9,92
392,921	-8,92
393,185	5,08
393,45	-11,92
393,715	-7,92
393,979	-3,92
394,244	-5,92
394,509	-0,92
394,774	-7,92
395,038	-3,92
395,303	-2,92
395,568	-0,92
395,832	-2,92
396,097	10,08
396,361	-1,92
396,626	4,08
396,891	-1,92
397,155	0,08
397,42	1,08
397,685	6,08
397,949	6,08
398,214	-4,92
398,478	3,08
398,743	-8,92
399,007	0,08
399,272	-10,92
399,536	-6,92
399,801	-9,92
400,066	-1,92
400,33	6,08
400,595	-9,92
400,859	-11,92
401,124	12,08
401,388	-10,92
401,652	-13,92
401,917	17,08
402,181	-3,92
402,446	-4,92
402,71	4,08
402,975	-8,92
403,239	-1,92
403,504	-7,92
403,768	5,08
404,032	-8,92
404,297	-5,92
404,561	-16,92
404,826	-7,92
405,09	1,08
405,354	-2,92
405,619	6,08
405,883	-6,92
406,147	-3,92
406,412	-4,92
406,676	-10,92
406,94	-6,92
407,205	-10,92
407,469	-10,92
407,733	-11,92
407,997	0,08
408,262	-3,92
408,526	4,08
408,79	-1,92
409,054	-1,92
409,319	0,08
409,583	-1,92
409,847	-11,92
410,111	-1,92
410,375	6,08
410,64	4,08
410,904	12,08
411,168	-9,92
411,432	-4,92
411,696	-6,92
411,96	-0,92
412,225	-2,92
412,489	-7,92
412,753	6,08
413,017	3,08
413,281	-10,92
413,545	-7,92
413,809	-1,92
414,073	8,08
414,337	3,08
414,602	9,08
414,866	-12,92
415,13	3,08
415,394	-4,92
415,658	0,08
415,922	-1,92
416,186	8,08
416,45	3,08
416,714	2,08
416,978	-8,92
417,242	-4,92
417,506	-7,92
417,77	1,08
418,034	-1,92
418,298	-14,92
418,562	3,08
418,825	3,08
419,089	-0,92
419,353	-8,92
419,617	-4,92
419,881	2,08
420,145	-9,92
420,409	-7,92
420,673	9,08
420,937	-3,92
421,2	-4,92
421,464	8,08
421,728	2,08
421,992	5,08
422,256	-0,92
422,52	-11,92
422,783	-5,92
423,047	-7,92
423,311	-1,92
423,575	7,08
423,839	4,08
424,102	-5,92
424,366	-16,92
424,63	-11,92
424,894	-6,92
425,157	-4,92
425,421	-14,92
425,685	7,08
425,949	-7,92
426,212	-6,92
426,476	-1,92
426,74	-10,92
427,003	-9,92
427,267	1,08
427,531	-10,92
427,794	-14,92
428,058	-10,92
428,322	-4,92
428,585	-4,92
428,849	0,08
429,112	-10,92
429,376	-0,92
429,64	2,08
429,903	1,08
430,167	-10,92
430,43	-19,92
430,694	-14,92
430,957	2,08
431,221	-10,92
431,485	-11,92
431,748	-3,92
432,012	-1,92
432,275	2,08
432,539	5,08
432,802	-1,92
433,066	-11,92
433,329	0,08
433,593	0,08
433,856	12,08
434,119	4,08
434,383	5,08
434,646	6,08
434,91	12,08
435,173	-1,92
435,437	-9,92
435,7	-5,92
435,963	-7,92
436,227	-1,92
436,49	-7,92
436,753	-16,92
437,017	4,08
437,28	-6,92
437,544	-14,92
437,807	6,08
438,07	8,08
438,334	-2,92
438,597	-14,92
438,86	-2,92
439,123	-9,92
439,387	-7,92
439,65	-4,92
439,913	-2,92
440,177	10,08
440,44	4,08
440,703	-4,92
440,966	2,08
441,229	-11,92
441,493	4,08
441,756	-0,92
442,019	-3,92
442,282	-1,92
442,545	3,08
442,809	13,08
443,072	6,08
443,335	0,08
443,598	-7,92
443,861	-5,92
444,124	-15,92
444,388	3,08
444,651	-6,92
444,914	-2,92
445,177	-2,92
445,44	-4,92
445,703	-5,92
445,966	-2,92
446,229	6,08
446,492	4,08
446,755	9,08
447,018	0,08
447,281	-10,92
447,544	10,08
447,807	-13,92
448,07	2,08
448,333	-9,92
448,596	-6,92
448,859	13,08
449,122	0,08
449,385	-9,92
449,648	-16,92
449,911	0,08
450,174	-3,92
450,437	-13,92
450,7	-9,92
450,963	-18,92
451,226	-10,92
451,489	-1,92
451,752	-12,92
452,015	0,08
452,277	-1,92
452,54	-10,92
452,803	-15,92
453,066	-9,92
453,329	3,08
453,592	-1,92
453,855	-11,92
454,117	5,08
454,38	-8,92
454,643	-2,92
454,906	-3,92
455,169	8,08
455,431	0,08
455,694	-7,92
455,957	-3,92
456,22	-9,92
456,482	-5,92
456,745	-3,92
457,008	6,08
457,271	8,08
457,533	0,08
457,796	-18,92
458,059	13,08
458,321	1,08
458,584	-18,92
458,847	-5,92
459,109	-8,92
459,372	-6,92
459,635	-7,92
459,897	-3,92
460,16	-7,92
460,423	-0,92
460,685	-1,92
460,948	-0,92
461,21	8,08
461,473	-11,92
461,735	-6,92
461,998	-5,92
462,261	4,08
462,523	4,08
462,786	6,08
463,048	-16,92
463,311	-5,92
463,573	2,08
463,836	3,08
464,098	1,08
464,361	-12,92
464,623	6,08
464,886	-5,92
465,148	2,08
465,411	0,08
465,673	2,08
465,936	-2,92
466,198	-3,92
466,46	-5,92
466,723	2,08
466,985	-4,92
467,248	-4,92
467,51	-4,92
467,772	-1,92
468,035	4,08
468,297	0,08
468,56	-9,92
468,822	6,08
469,084	-7,92
469,347	-10,92
469,609	6,08
469,871	-5,92
470,133	-4,92
470,396	5,08
470,658	-15,92
470,92	-6,92
471,183	1,08
471,445	-11,92
471,707	-1,92
471,969	-9,92
472,232	-13,92
472,494	0,08
472,756	3,08
473,018	-1,92
473,281	-3,92
473,543	-3,92
473,805	-9,92
474,067	-0,92
474,329	9,08
474,591	-7,92
474,854	-17,92
475,116	-10,92
475,378	-5,92
475,64	-4,92
475,902	-9,92
476,164	-4,92
476,426	-6,92
476,688	-15,92
476,951	-17,92
477,213	3,08
477,475	-2,92
477,737	-14,92
477,999	-5,92
478,261	5,08
478,523	3,08
478,785	-5,92
479,047	-1,92
479,309	-9,92
479,571	-12,92
479,833	-0,92
480,095	10,08
480,357	-11,92
480,619	-3,92
480,881	-0,92
481,143	6,08
481,405	3,08
481,667	-6,92
481,929	6,08
482,191	1,08
482,452	1,08
482,714	1,08
482,976	-0,92
483,238	7,08
483,5	9,08
483,762	-0,92
484,024	5,08
484,286	-13,92
484,547	8,08
484,809	5,08
485,071	-2,92
485,333	1,08
485,595	-1,92
485,857	-9,92
486,118	-8,92
486,38	8,08
486,642	-12,92
486,904	-5,92
487,165	0,08
487,427	-0,92
487,689	0,08
487,951	-4,92
488,212	-9,92
488,474	-6,92
488,736	4,08
488,998	-10,92
489,259	4,08
489,521	-1,92
489,783	2,08
490,044	-15,92
490,306	-10,92
490,568	-8,92
490,829	-9,92
491,091	-17,92
491,353	-14,92
491,614	6,08
491,876	-18,92
492,137	1,08
492,399	8,08
492,661	8,08
492,922	6,08
493,184	4,08
493,445	4,08
493,707	6,08
493,968	2,08
494,23	-7,92
494,491	3,08
494,753	0,08
495,014	-5,92
495,276	-2,92
495,537	-4,92
495,799	-7,92
496,06	9,08
496,322	-9,92
496,583	-4,92
496,845	-5,92
497,106	-18,92
497,368	-6,92
497,629	6,08
497,89	-1,92
498,152	0,08
498,413	-10,92
498,675	-18,92
498,936	5,08
499,197	-15,92
499,459	1,08
499,72	-6,92
499,981	-10,92
500,243	-9,92
500,504	-0,92
500,765	0,08
501,027	-12,92
501,288	5,08
501,549	3,08
501,811	-5,92
502,072	-5,92
502,333	6,08
502,594	-9,92
502,856	-0,92
503,117	-3,92
503,378	-0,92
503,639	-1,92
503,901	-5,92
504,162	-13,92
504,423	-7,92
504,684	-7,92
504,945	-7,92
505,207	-4,92
505,468	1,08
505,729	-16,92
505,99	-11,92
506,251	12,08
506,512	0,08
506,774	7,08
507,035	19,08
507,296	-2,92
507,557	7,08
507,818	-0,92
508,079	-4,92
508,34	10,08
508,601	4,08
508,862	-16,92
509,123	4,08
509,384	1,08
509,645	3,08
509,906	-3,92
510,167	-6,92
510,428	-8,92
510,689	-9,92
510,95	-12,92
511,211	-4,92
511,472	6,08
511,733	1,08
511,994	6,08
512,255	-0,92
512,516	-4,92
512,777	3,08
513,038	5,08
513,299	-10,92
513,56	-7,92
513,821	-2,92
514,082	-8,92
514,343	-11,92
514,603	-4,92
514,864	-8,92
515,125	4,08
515,386	-15,92
515,647	-11,92
515,908	-9,92
516,169	12,08
516,429	3,08
516,69	-10,92
516,951	14,08
517,212	2,08
517,473	4,08
517,733	-16,92
517,994	13,08
518,255	5,08
518,516	1,08
518,776	-4,92
519,037	3,08
519,298	0,08
519,559	5,08
519,819	2,08
520,08	6,08
520,341	-5,92
520,601	13,08
520,862	6,08
521,123	9,08
521,383	8,08
521,644	-4,92
521,905	-14,92
522,165	2,08
522,426	-10,92
522,686	-0,92
522,947	-8,92
523,208	4,08
523,468	-11,92
523,729	-2,92
523,989	-0,92
524,25	1,08
524,51	2,08
524,771	-10,92
525,032	-2,92
525,292	-0,92
525,553	-11,92
525,813	1,08
526,074	-7,92
526,334	-1,92
526,595	-0,92
526,855	1,08
527,116	-6,92
527,376	6,08
527,636	12,08
527,897	8,08
528,157	-5,92
528,418	2,08
528,678	2,08
528,939	-4,92
529,199	-7,92
529,459	-5,92
529,72	0,08
529,98	-0,92
530,24	5,08
530,501	0,08
530,761	13,08
531,022	-1,92
531,282	-5,92
531,542	-0,92
531,803	-7,92
532,063	-8,92
532,323	-3,92
532,583	-6,92
532,844	5,08
533,104	-10,92
533,364	-17,92
533,624	-13,92
533,885	-8,92
534,145	-9,92
534,405	-0,92
534,665	-7,92
534,926	-7,92
535,186	-10,92
535,446	-9,92
535,706	-8,92
535,966	-11,92
536,227	-4,92
536,487	-3,92
536,747	-2,92
537,007	8,08
537,267	-4,92
537,527	-1,92
537,787	-6,92
538,048	-2,92
538,308	-14,92
538,568	1,08
538,828	-10,92
539,088	4,08
539,348	3,08
539,608	-8,92
539,868	6,08
540,128	-10,92
540,388	-10,92
540,648	-2,92
540,908	0,08
541,168	6,08
541,428	0,08
541,688	6,08
541,948	5,08
542,208	0,08
542,468	-2,92
542,728	3,08
542,988	3,08
543,248	3,08
543,508	1,08
543,768	4,08
544,028	7,08
544,288	0,08
544,548	-0,92
544,807	2,08
545,067	-3,92
545,327	-5,92
545,587	11,08
545,847	13,08
546,107	4,08
546,367	-7,92
546,626	-10,92
546,886	1,08
547,146	-7,92
547,406	4,08
547,666	-0,92
547,925	-3,92
548,185	-1,92
548,445	-12,92
548,705	0,08
548,965	-9,92
549,224	10,08
549,484	-3,92
549,744	0,08
550,003	14,08
550,263	3,08
550,523	-1,92
550,783	-9,92
551,042	-3,92
551,302	-8,92
551,562	-10,92
551,821	2,08
552,081	3,08
552,341	1,08
552,6	-3,92
552,86	4,08
553,119	-2,92
553,379	-4,92
553,639	-7,92
553,898	-3,92
554,158	2,08
554,417	-11,92
554,677	4,08
554,936	15,08
555,196	-5,92
555,456	-10,92
555,715	6,08
555,975	-4,92
556,234	-8,92
556,494	5,08
556,753	2,08
557,013	-0,92
557,272	2,08
557,532	-1,92
557,791	16,08
558,051	-1,92
558,31	9,08
558,569	7,08
558,829	6,08
559,088	7,08
559,348	-12,92
559,607	-4,92
559,866	13,08
560,126	3,08
560,385	2,08
560,645	-17,92
560,904	2,08
561,163	-6,92
561,423	-9,92
561,682	-2,92
561,941	-5,92
562,201	-2,92
562,46	-11,92
562,719	-6,92
562,979	8,08
563,238	-12,92
563,497	-3,92
563,756	-8,92
564,016	-9,92
564,275	0,08
564,534	-0,92
564,793	6,08
565,053	2,08
565,312	11,08
565,571	-4,92
565,83	-6,92
566,089	-7,92
566,349	0,08
566,608	8,08
566,867	-3,92
567,126	-1,92
567,385	1,08
567,644	-7,92
567,903	-5,92
568,163	-1,92
568,422	-0,92
568,681	-2,92
568,94	10,08
569,199	-3,92
569,458	-3,92
569,717	-0,92
569,976	-8,92
570,235	-14,92
570,494	-3,92
570,753	8,08
571,012	-2,92
571,271	2,08
571,53	7,08
571,789	17,08
572,048	13,08
572,307	-3,92
572,566	8,08
572,825	12,08
573,084	-7,92
573,343	3,08
573,602	-9,92
573,861	2,08
574,12	9,08
574,379	0,08
574,638	-10,92
574,897	0,08
575,156	-7,92
575,414	3,08
575,673	1,08
575,932	5,08
576,191	6,08
576,45	-1,92
576,709	-3,92
576,968	10,08
577,226	0,08
577,485	3,08
577,744	4,08
578,003	-7,92
578,262	1,08
578,52	-12,92
578,779	6,08
579,038	1,08
579,297	7,08
579,555	-1,92
579,814	-2,92
580,073	-1,92
580,332	0,08
580,59	6,08
580,849	4,08
581,108	2,08
581,366	-13,92
581,625	1,08
581,884	10,08
582,142	13,08
582,401	3,08
582,66	-10,92
582,918	12,08
583,177	-1,92
583,436	5,08
583,694	7,08
583,953	4,08
584,211	0,08
584,47	2,08
584,728	3,08
584,987	0,08
585,246	14,08
585,504	10,08
585,763	0,08
586,021	8,08
586,28	1,08
586,538	-4,92
586,797	8,08
587,055	9,08
587,314	1,08
587,572	7,08
587,831	16,08
588,089	10,08
588,348	1,08
588,606	-2,92
588,864	4,08
589,123	0,08
589,381	11,08
589,64	3,08
589,898	9,08
590,157	8,08
590,415	8,08
590,673	6,08
590,932	18,08
591,19	-3,92
591,448	10,08
591,707	18,08
591,965	9,08
592,223	4,08
592,482	18,08
592,74	-4,92
592,998	14,08
593,257	13,08
593,515	6,08
593,773	-0,92
594,031	9,08
594,29	8,08
594,548	-12,92
594,806	7,08
595,064	4,08
595,323	5,08
595,581	11,08
595,839	2,08
596,097	12,08
596,355	8,08
596,613	12,08
596,872	10,08
597,13	22,08
597,388	20,08
597,646	11,08
597,904	-5,92
598,162	1,08
598,42	10,08
598,679	8,08
598,937	14,08
599,195	16,08
599,453	13,08
599,711	11,08
599,969	13,08
600,227	9,08
600,485	18,08
600,743	6,08
601,001	16,08
601,259	11,08
601,517	17,08
601,775	5,08
602,033	9,08
602,291	12,08
602,549	4,08
602,807	6,08
603,065	-1,92
603,323	1,08
603,581	-10,92
603,839	10,08
604,097	21,08
604,355	10,08
604,613	-2,92
604,871	10,08
605,128	12,08
605,386	-2,92
605,644	10,08
605,902	9,08
606,16	6,08
606,418	8,08
606,676	13,08
606,933	-2,92
607,191	3,08
607,449	1,08
607,707	3,08
607,965	9,08
608,223	0,08
608,48	-9,92
608,738	7,08
608,996	-4,92
609,254	-12,92
609,511	5,08
609,769	4,08
610,027	9,08
610,285	10,08
610,542	-6,92
610,8	15,08
611,058	16,08
611,315	2,08
611,573	3,08
611,831	2,08
612,088	0,08
612,346	16,08
612,604	-6,92
612,861	2,08
613,119	12,08
613,376	11,08
613,634	3,08
613,892	5,08
614,149	5,08
614,407	5,08
614,664	-0,92
614,922	6,08
615,18	3,08
615,437	7,08
615,695	17,08
615,952	19,08
616,21	8,08
616,467	-1,92
616,725	6,08
616,982	-4,92
617,24	-2,92
617,497	8,08
617,755	9,08
618,012	-2,92
618,27	19,08
618,527	-7,92
618,784	13,08
619,042	4,08
619,299	15,08
619,557	18,08
619,814	2,08
620,071	9,08
620,329	3,08
620,586	-2,92
620,844	2,08
621,101	16,08
621,358	3,08
621,616	-8,92
621,873	16,08
622,13	1,08
622,388	10,08
622,645	-13,92
622,902	4,08
623,159	13,08
623,417	12,08
623,674	-6,92
623,931	1,08
624,188	11,08
624,446	4,08
624,703	-3,92
624,96	5,08
625,217	13,08
625,475	15,08
625,732	7,08
625,989	2,08
626,246	11,08
626,503	9,08
626,761	16,08
627,018	19,08
627,275	3,08
627,532	6,08
627,789	6,08
628,046	-4,92
628,303	-4,92
628,56	0,08
628,818	12,08
629,075	7,08
629,332	6,08
629,589	11,08
629,846	5,08
630,103	17,08
630,36	5,08
630,617	5,08
630,874	14,08
631,131	8,08
631,388	12,08
631,645	-2,92
631,902	3,08
632,159	11,08
632,416	5,08
632,673	7,08
632,93	11,08
633,187	14,08
633,444	13,08
633,701	3,08
633,958	14,08
634,215	12,08
634,471	5,08
634,728	-4,92
634,985	15,08
635,242	15,08
635,499	5,08
635,756	2,08
636,013	16,08
636,27	5,08
636,526	14,08
636,783	9,08
637,04	13,08
637,297	19,08
637,554	8,08
637,81	14,08
638,067	19,08
638,324	20,08
638,581	22,08
638,838	25,08
639,094	4,08
639,351	23,08
639,608	37,08
639,864	10,08
640,121	16,08
640,378	7,08
640,635	14,08
640,891	13,08
641,148	25,08
641,405	30,08
641,661	34,08
641,918	27,08
642,175	32,08
642,431	24,08
642,688	34,08
642,944	58,08
643,201	39,08
643,458	52,08
643,714	59,08
643,971	57,08
644,227	53,08
644,484	67,08
644,741	59,08
644,997	53,08
645,254	68,08
645,51	65,08
645,767	83,08
646,023	87,08
646,28	91,08
646,536	91,08
646,793	97,08
647,049	100,08
647,306	115,08
647,562	99,08
647,819	119,08
648,075	120,08
648,331	130,08
648,588	149,08
648,844	165,08
649,101	156,08
649,357	180,08
649,613	196,08
649,87	207,08
650,126	211,08
650,383	220,08
650,639	218,08
650,895	234,08
651,152	263,08
651,408	262,08
651,664	261,08
651,921	286,08
652,177	283,08
652,433	293,08
652,689	333,08
652,946	328,08
653,202	356,08
653,458	382,08
653,715	381,08
653,971	381,08
654,227	416,08
654,483	443,08
654,739	465,08
654,996	472,08
655,252	468,08
655,508	516,08
655,764	492,08
656,02	530,08
656,277	551,08
656,533	554,08
656,789	587,08
657,045	576,08
657,301	588,08
657,557	585,08
657,813	651,08
658,07	645,08
658,326	639,08
658,582	676,08
658,838	699,08
659,094	721,08
659,35	734,08
659,606	747,08
659,862	739,08
660,118	758,08
660,374	746,08
660,63	782,08
660,886	790,08
661,142	761,08
661,398	789,08
661,654	820,08
661,91	816,08
662,166	835,08
662,422	806,08
662,678	815,08
662,934	845,08
663,19	880,08
663,446	874,08
663,702	876,08
663,957	901,08
664,213	905,08
664,469	919,08
664,725	919,08
664,981	934,08
665,237	918,08
665,493	937,08
665,749	916,08
666,004	924,08
666,26	937,08
666,516	962,08
666,772	950,08
667,028	957,08
667,283	966,08
667,539	940,08
667,795	939,08
668,051	974,08
668,307	958,08
668,562	958,08
668,818	964,08
669,074	954,08
669,329	946,08
669,585	955,08
669,841	946,08
670,097	960,08
670,352	934,08
670,608	923,08
670,864	954,08
671,119	956,08
671,375	964,08
671,631	936,08
671,886	945,08
672,142	949,08
672,397	937,08
672,653	932,08
672,909	927,08
673,164	946,08
673,42	928,08
673,675	911,08
673,931	927,08
674,186	931,08
674,442	922,08
674,698	909,08
674,953	906,08
675,209	888,08
675,464	902,08
675,72	883,08
675,975	901,08
676,231	891,08
676,486	900,08
676,742	888,08
676,997	900,08
677,252	848,08
677,508	863,08
677,763	880,08
678,019	856,08
678,274	852,08
678,53	850,08
678,785	814,08
679,04	813,08
679,296	833,08
679,551	834,08
679,806	799,08
680,062	795,08
680,317	816,08
680,572	797,08
680,828	802,08
681,083	807,08
681,338	804,08
681,594	797,08
681,849	775,08
682,104	786,08
682,36	771,08
682,615	797,08
682,87	773,08
683,125	778,08
683,381	789,08
683,636	761,08
683,891	748,08
684,146	752,08
684,401	753,08
684,657	729,08
684,912	761,08
685,167	729,08
685,422	742,08
685,677	735,08
685,932	714,08
686,188	718,08
686,443	710,08
686,698	733,08
686,953	702,08
687,208	701,08
687,463	682,08
687,718	688,08
687,973	677,08
688,228	661,08
688,483	660,08
688,739	665,08
688,994	640,08
689,249	659,08
689,504	673,08
689,759	669,08
690,014	638,08
690,269	605,08
690,524	619,08
690,779	629,08
691,034	641,08
691,289	604,08
691,544	616,08
691,798	630,08
692,053	602,08
692,308	594,08
692,563	603,08
692,818	614,08
693,073	574,08
693,328	602,08
693,583	593,08
693,838	594,08
694,093	565,08
694,347	561,08
694,602	562,08
694,857	548,08
695,112	558,08
695,367	554,08
695,622	571,08
695,876	545,08
696,131	536,08
696,386	536,08
696,641	522,08
696,896	528,08
697,15	515,08
697,405	521,08
697,66	508,08
697,915	521,08
698,169	519,08
698,424	488,08
698,679	478,08
698,933	517,08
699,188	486,08
699,443	476,08
699,698	491,08
699,952	467,08
700,207	471,08
700,461	473,08
700,716	475,08
700,971	456,08
701,225	456,08
701,48	463,08
701,735	458,08
701,989	466,08
702,244	445,08
702,498	436,08
702,753	437,08
703,007	453,08
703,262	428,08
703,517	448,08
703,771	441,08
704,026	429,08
704,28	430,08
704,535	427,08
704,789	426,08
705,044	402,08
705,298	394,08
705,553	414,08
705,807	410,08
706,062	397,08
706,316	384,08
706,57	407,08
706,825	396,08
707,079	393,08
707,334	358,08
707,588	393,08
707,842	367,08
708,097	377,08
708,351	374,08
708,606	360,08
708,86	368,08
709,114	364,08
709,369	356,08
709,623	361,08
709,877	354,08
710,132	346,08
710,386	341,08
710,64	356,08
710,895	355,08
711,149	348,08
711,403	334,08
711,657	345,08
711,912	320,08
712,166	325,08
712,42	324,08
712,674	327,08
712,928	311,08
713,183	311,08
713,437	308,08
713,691	322,08
713,945	321,08
714,199	313,08
714,454	300,08
714,708	300,08
714,962	301,08
715,216	290,08
715,47	289,08
715,724	284,08
715,978	284,08
716,233	289,08
716,487	288,08
716,741	264,08
716,995	276,08
717,249	269,08
717,503	260,08
717,757	228,08
718,011	269,08
718,265	275,08
718,519	275,08
718,773	261,08
719,027	268,08
719,281	258,08
719,535	258,08
719,789	253,08
720,043	253,08
720,297	272,08
720,551	237,08
720,805	243,08
721,059	263,08
721,313	230,08
721,567	237,08
721,821	242,08
722,074	252,08
722,328	231,08
722,582	239,08
722,836	235,08
723,09	235,08
723,344	230,08
723,598	224,08
723,851	233,08
724,105	236,08
724,359	217,08
724,613	213,08
724,867	215,08
725,121	212,08
725,374	213,08
725,628	197,08
725,882	212,08
726,136	206,08
726,389	203,08
726,643	210,08
726,897	206,08
727,151	193,08
727,404	177,08
727,658	198,08
727,912	197,08
728,165	201,08
728,419	194,08
728,673	176,08
728,926	184,08
729,18	179,08
729,434	190,08
729,687	170,08
729,941	181,08
730,195	173,08
730,448	174,08
730,702	156,08
730,955	162,08
731,209	179,08
731,462	168,08
731,716	164,08
731,97	154,08
732,223	154,08
732,477	174,08
732,73	163,08
732,984	177,08
733,237	167,08
733,491	151,08
733,744	163,08
733,998	168,08
734,251	152,08
734,505	164,08
734,758	144,08
735,012	130,08
735,265	151,08
735,518	143,08
735,772	144,08
736,025	148,08
736,279	150,08
736,532	141,08
736,785	145,08
737,039	155,08
737,292	142,08
737,546	141,08
737,799	122,08
738,052	138,08
738,306	117,08
738,559	123,08
738,812	135,08
739,066	137,08
739,319	121,08
739,572	131,08
739,825	134,08
740,079	134,08
740,332	114,08
740,585	116,08
740,838	125,08
741,092	96,08
741,345	126,08
741,598	117,08
741,851	124,08
742,104	132,08
742,358	117,08
742,611	105,08
742,864	120,08
743,117	104,08
743,37	119,08
743,623	116,08
743,877	104,08
744,13	120,08
744,383	106,08
744,636	99,08
744,889	119,08
745,142	120,08
745,395	115,08
745,648	98,08
745,901	110,08
746,154	102,08
746,408	109,08
746,661	95,08
746,914	91,08
747,167	88,08
747,42	97,08
747,673	93,08
747,926	102,08
748,179	99,08
748,432	82,08
748,685	86,08
748,938	106,08
749,19	90,08
749,443	96,08
749,696	87,08
749,949	113,08
750,202	84,08
750,455	85,08
750,708	100,08
750,961	99,08
751,214	113,08
751,467	86,08
751,719	76,08
751,972	72,08
752,225	91,08
752,478	82,08
752,731	95,08
752,984	76,08
753,236	76,08
753,489	85,08
753,742	87,08
753,995	83,08
754,248	83,08
754,5	84,08
754,753	70,08
755,006	81,08
755,259	73,08
755,511	82,08
755,764	82,08
756,017	70,08
756,269	68,08
756,522	71,08
756,775	72,08
757,027	66,08
757,28	73,08
757,533	74,08
757,785	84,08
758,038	52,08
758,291	69,08
758,543	61,08
758,796	66,08
759,049	76,08
759,301	65,08
759,554	58,08
759,806	72,08
760,059	53,08
760,311	64,08
760,564	76,08
760,817	54,08
761,069	53,08
761,322	53,08
761,574	50,08
761,827	45,08
762,079	74,08
762,332	66,08
762,584	53,08
762,837	48,08
763,089	53,08
763,341	50,08
763,594	45,08
763,846	50,08
764,099	41,08
764,351	55,08
764,604	50,08
764,856	53,08
765,108	49,08
765,361	62,08
765,613	50,08
765,865	49,08
766,118	62,08
766,37	50,08
766,623	42,08
766,875	33,08
767,127	55,08
767,379	40,08
767,632	45,08
767,884	47,08
768,136	41,08
768,389	44,08
768,641	33,08
768,893	40,08
769,145	44,08
769,398	46,08
769,65	32,08
769,902	41,08
770,154	35,08
770,406	53,08
770,659	39,08
770,911	55,08
771,163	48,08
771,415	36,08
771,667	51,08
771,919	45,08
772,172	32,08
772,424	32,08
772,676	33,08
772,928	48,08
773,18	30,08
773,432	41,08
773,684	41,08
773,936	36,08
774,188	43,08
774,44	31,08
774,693	29,08
774,945	40,08
775,197	33,08
775,449	45,08
775,701	38,08
775,953	24,08
776,205	26,08
776,457	41,08
776,709	37,08
776,961	36,08
777,213	32,08
777,464	39,08
777,716	28,08
777,968	16,08
778,22	29,08
778,472	33,08
778,724	43,08
778,976	40,08
779,228	34,08
779,48	24,08
779,732	29,08
779,984	48,08
780,235	48,08
780,487	39,08
780,739	38,08
780,991	29,08
781,243	33,08
781,494	23,08
781,746	20,08
781,998	29,08
782,25	34,08
782,502	23,08
782,753	36,08
783,005	22,08
783,257	32,08
783,509	28,08
783,76	33,08
784,012	42,08
784,264	32,08
784,515	38,08
784,767	18,08
785,019	20,08
785,271	24,08
785,522	26,08
785,774	23,08
786,026	25,08
786,277	31,08
786,529	29,08
786,78	14,08
787,032	15,08
787,284	15,08
787,535	40,08
787,787	21,08
788,038	0,08
788,29	14,08
788,541	22,08
788,793	7,08
789,045	18,08
789,296	12,08
789,548	17,08
789,799	10,08
790,051	15,08
790,302	14,08
790,554	11,08
790,805	22,08
791,057	23,08
791,308	11,08
791,559	25,08
791,811	20,08
792,062	29,08
792,314	12,08
792,565	17,08
792,817	12,08
793,068	19,08
793,319	24,08
793,571	3,08
793,822	25,08
794,073	27,08
794,325	16,08
794,576	20,08
794,827	19,08
795,079	13,08
795,33	24,08
795,581	22,08
795,833	23,08
796,084	18,08
796,335	5,08
796,587	8,08
796,838	15,08
797,089	26,08
797,34	19,08
797,592	13,08
797,843	18,08
798,094	15,08
798,345	-1,92
798,596	26,08
798,848	24,08
799,099	13,08
799,35	14,08
799,601	16,08
799,852	21,08
800,103	6,08
800,355	14,08
800,606	36,08
800,857	19,08
801,108	11,08
801,359	26,08
801,61	3,08
801,861	0,08
802,112	6,08
802,363	13,08
802,614	15,08
802,865	11,08
803,116	18,08
803,367	15,08
803,618	17,08
803,869	-2,92
804,12	15,08
804,371	23,08
804,622	4,08
804,873	21,08
805,124	21,08
805,375	4,08
805,626	12,08
805,877	16,08
806,128	12,08
806,379	11,08
806,63	24,08
806,881	9,08
807,132	3,08
807,383	1,08
807,634	14,08
807,884	8,08
808,135	16,08
808,386	-2,92
808,637	-1,92
808,888	8,08
809,139	2,08
809,389	1,08
809,64	16,08
809,891	2,08
810,142	21,08
810,393	4,08
810,643	3,08
810,894	8,08
811,145	10,08
811,396	4,08
811,646	19,08
811,897	24,08
812,148	7,08
812,398	12,08
812,649	20,08
812,9	14,08
813,151	17,08
813,401	6,08
813,652	35,08
813,902	23,08
814,153	3,08
814,404	13,08
814,654	8,08
814,905	5,08
815,156	3,08
815,406	-0,92
815,657	9,08
815,907	4,08
816,158	19,08
816,408	-1,92
816,659	5,08
816,91	13,08
817,16	1,08
817,411	15,08
817,661	9,08
817,912	-1,92
818,162	5,08
818,413	1,08
818,663	4,08
818,914	18,08
819,164	12,08
819,414	7,08
819,665	21,08
819,915	21,08
820,166	23,08
820,416	13,08
820,667	8,08
820,917	4,08
821,167	16,08
821,418	11,08
821,668	6,08
821,918	3,08
822,169	5,08
822,419	1,08
822,67	2,08
822,92	4,08
823,17	-0,92
823,42	-2,92
823,671	5,08
823,921	6,08
824,171	9,08
824,422	5,08
824,672	26,08
824,922	5,08
825,172	-8,92
825,423	1,08
825,673	13,08
825,923	14,08
826,173	0,08
826,423	-7,92
826,674	-4,92
826,924	3,08
827,174	11,08
827,424	8,08
827,674	8,08
827,924	3,08
828,175	5,08
828,425	15,08
828,675	4,08
828,925	-1,92
829,175	16,08
829,425	2,08
829,675	-2,92
829,925	10,08
830,175	4,08
830,425	-15,92
830,675	-0,92
830,925	7,08
831,175	9,08
831,425	0,08
831,676	2,08
831,926	-2,92
832,175	-4,92
832,425	-10,92
832,675	1,08
832,925	9,08
833,175	6,08
833,425	-8,92
833,675	4,08
833,925	5,08
834,175	4,08
834,425	4,08
834,675	20,08
834,925	2,08
835,175	2,08
835,425	7,08
835,674	-5,92
835,924	1,08
836,174	-12,92
836,424	7,08
836,674	5,08
836,924	5,08
837,173	8,08
837,423	15,08
837,673	-4,92
837,923	21,08
838,173	17,08
838,422	4,08
838,672	-0,92
838,922	1,08
839,172	8,08
839,421	16,08
839,671	4,08
839,921	11,08
840,17	13,08
840,42	4,08
840,67	17,08
840,919	1,08
841,169	6,08
841,419	17,08
841,668	13,08
841,918	6,08
842,168	14,08
842,417	1,08
842,667	-6,92
842,916	3,08
843,166	6,08
843,416	13,08
843,665	13,08
843,915	-5,92
844,164	-2,92
844,414	8,08
844,663	3,08
844,913	13,08
845,162	3,08
845,412	-4,92
845,662	1,08
845,911	5,08
846,16	3,08
846,41	9,08
846,659	-4,92
846,909	-7,92
847,158	-2,92
847,408	-4,92
847,657	0,08
847,907	0,08
848,156	8,08
848,405	-3,92
848,655	2,08
848,904	6,08
849,154	1,08
849,403	1,08
849,652	10,08
849,902	21,08
850,151	6,08
850,4	9,08
850,65	-2,92
850,899	-1,92
851,148	0,08
851,398	-6,92
851,647	16,08
851,896	-2,92
852,145	0,08
852,395	-3,92
852,644	-1,92
852,893	1,08
853,142	8,08
853,392	-8,92
853,641	2,08
853,89	11,08
854,139	13,08
854,388	8,08
854,637	20,08
854,887	14,08
855,136	-4,92
855,385	-1,92
855,634	14,08
855,883	0,08
856,132	8,08
856,381	-3,92
856,631	0,08
856,88	-15,92
857,129	0,08
857,378	-8,92
857,627	-4,92
857,876	6,08
858,125	0,08
858,374	2,08
858,623	4,08
858,872	10,08
859,121	6,08
859,37	-4,92
859,619	2,08
859,868	9,08
860,117	9,08
860,366	-2,92
860,615	9,08
860,864	-1,92
861,113	-13,92
861,362	-0,92
861,611	3,08
861,86	1,08
862,108	0,08
862,357	5,08
862,606	-2,92
862,855	9,08
863,104	2,08
863,353	-1,92
863,602	1,08
863,851	43,08
864,099	14,08
864,348	5,08
864,597	-10,92
864,846	2,08
865,095	6,08
865,343	1,08
865,592	-3,92
865,841	5,08
866,09	7,08
866,338	-1,92
866,587	4,08
866,836	24,08
867,085	1,08
867,333	-7,92
867,582	-22,92
867,831	-12,92
868,079	-5,92
868,328	-0,92
868,577	4,08
868,825	8,08
869,074	1,08
869,323	-7,92
869,571	5,08
869,82	-3,92
870,068	2,08
870,317	2,08
870,566	-1,92
870,814	-2,92
871,063	-15,92
871,311	10,08
871,56	9,08
871,808	-15,92
872,057	-2,92
872,306	10,08
872,554	9,08
872,803	4,08
873,051	16,08
873,3	-4,92
873,548	-9,92
873,797	-1,92
874,045	0,08
874,293	12,08
874,542	-7,92
874,79	-9,92
875,039	-1,92
875,287	6,08
875,536	4,08
875,784	6,08
876,032	-1,92
876,281	1,08
876,529	-5,92
876,777	0,08
877,026	1,08
877,274	-5,92
877,523	-5,92
877,771	-8,92
878,019	0,08
878,267	1,08
878,516	10,08
878,764	0,08
879,012	4,08
879,261	-8,92
879,509	5,08
879,757	3,08
880,005	1,08
880,254	-4,92
880,502	-8,92
880,75	-4,92
880,998	-0,92
881,246	9,08
881,495	-6,92
881,743	5,08
881,991	2,08
882,239	-3,92
882,487	8,08
882,735	8,08
882,984	9,08
883,232	0,08
883,48	0,08
883,728	-2,92
883,976	-4,92
884,224	-7,92
884,472	11,08
884,72	9,08
884,968	-1,92
885,216	5,08
885,464	3,08
885,712	0,08
885,96	-7,92
886,208	-16,92
886,457	4,08
886,704	-10,92
886,952	3,08
887,2	3,08
887,448	9,08
887,696	-4,92
887,944	-2,92
888,192	-1,92
888,44	-10,92
888,688	0,08
888,936	13,08
889,184	-5,92
889,432	4,08
889,68	-8,92
889,928	4,08
890,175	-2,92
890,423	-1,92
890,671	-0,92
890,919	8,08
891,167	14,08
891,415	-1,92
891,663	0,08
891,91	-1,92
892,158	3,08
892,406	2,08
892,654	3,08
892,901	2,08
893,149	19,08
893,397	9,08
893,645	4,08
893,892	1,08
894,14	8,08
894,388	7,08
894,636	0,08
894,883	-5,92
895,131	1,08
895,379	-15,92
895,626	9,08
895,874	5,08
896,122	-5,92
896,369	9,08
896,617	-1,92
896,864	-3,92
897,112	-1,92
897,36	-5,92
897,607	-0,92
897,855	1,08
898,102	7,08
898,35	11,08
898,598	-10,92
898,845	-9,92
899,093	-10,92
899,34	-9,92
899,588	-1,92
899,835	6,08
900,083	-12,92
900,33	14,08
900,578	1,08
900,825	-20,92
901,073	-11,92
901,32	-1,92
901,568	-4,92
901,815	8,08
902,062	13,08
902,31	5,08
902,557	3,08
902,805	26,08
903,052	-4,92
903,299	5,08
903,547	-6,92
903,794	-0,92
904,042	1,08
904,289	3,08
904,536	-4,92
904,784	1,08
905,031	-0,92
905,278	-14,92
905,525	-0,92
905,773	3,08
906,02	-7,92
906,267	-9,92
906,515	7,08
906,762	-8,92
907,009	8,08
907,256	-5,92
907,504	3,08
907,751	-1,92
907,998	2,08
908,245	8,08
908,492	-2,92
908,74	-2,92
908,987	9,08
909,234	-6,92
909,481	-3,92
909,728	0,08
909,975	-12,92
910,222	-7,92
910,47	-2,92
910,717	-17,92
910,964	-9,92
911,211	-2,92
911,458	-10,92
911,705	-2,92
911,952	2,08
912,199	7,08
912,446	-7,92
912,693	6,08
912,94	-6,92
913,187	-2,92
913,434	-4,92
913,681	-1,92
913,928	-11,92
914,175	-1,92
914,422	-1,92
914,669	-3,92
914,916	2,08
915,163	0,08
915,41	-12,92
915,657	-6,92
915,904	-0,92
916,151	8,08
916,398	12,08
916,644	3,08
916,891	-2,92
917,138	-3,92
917,385	2,08
917,632	-19,92
917,879	-8,92
918,126	9,08
918,372	5,08
918,619	0,08
918,866	6,08
919,113	13,08
919,36	9,08
919,606	-6,92
919,853	-16,92
920,1	3,08
920,347	-10,92
920,593	0,08
920,84	-3,92
921,087	-13,92
921,334	4,08
921,58	-1,92
921,827	-7,92
922,074	-7,92
922,32	1,08
922,567	6,08
922,814	-3,92
923,06	-11,92
923,307	-3,92
923,554	-4,92
923,8	-8,92
924,047	3,08
924,293	-14,92
924,54	-1,92
924,787	-17,92
925,033	-1,92
925,28	-7,92
925,526	-4,92
925,773	-6,92
926,019	-2,92
926,266	3,08
926,512	3,08
926,759	-2,92
927,005	-1,92
927,252	3,08
927,498	-4,92
927,745	-6,92
927,991	-1,92
928,238	-9,92
928,484	-7,92
928,731	16,08
928,977	0,08
929,223	-1,92
929,47	-6,92
929,716	-11,92
929,963	-4,92
930,209	4,08
930,455	-5,92
930,702	-12,92
930,948	-11,92
931,194	0,08
931,441	-5,92
931,687	-3,92
931,933	1,08
932,18	-12,92
932,426	-5,92
932,672	-15,92
932,919	-6,92
933,165	-12,92
933,411	0,08
933,657	-14,92
933,904	-0,92
934,15	-10,92
934,396	4,08
934,642	-2,92
934,889	6,08
935,135	-7,92
935,381	7,08
935,627	9,08
935,873	6,08
936,119	3,08
936,366	5,08
936,612	-4,92
936,858	2,08
937,104	3,08
937,35	10,08
937,596	-3,92
937,842	2,08
938,088	0,08
938,334	3,08
938,58	-1,92
938,827	3,08
939,073	-2,92
939,319	-9,92
939,565	3,08
939,811	6,08
940,057	-13,92
940,303	2,08
940,549	-10,92
940,795	5,08
941,041	8,08
941,287	14,08
941,533	9,08
941,778	-9,92
942,024	-1,92
942,27	11,08
942,516	-5,92
942,762	-2,92
943,008	-9,92
943,254	-2,92
943,5	-5,92
943,746	-0,92
943,992	10,08
944,237	-0,92
944,483	-5,92
944,729	-3,92
944,975	-13,92
945,221	-0,92
945,467	5,08
945,712	-7,92
945,958	11,08
946,204	-1,92
946,45	-6,92
946,695	-14,92
946,941	-3,92
947,187	-1,92
947,433	-4,92
947,678	4,08
947,924	-1,92
948,17	-13,92
948,415	-5,92
948,661	2,08
948,907	-2,92
949,153	-14,92
949,398	7,08
949,644	4,08
949,889	-6,92
950,135	2,08
950,381	-4,92
950,626	3,08
950,872	-5,92
951,118	6,08
951,363	5,08
951,609	2,08
951,854	4,08
952,1	-6,92
952,345	-4,92
952,591	-2,92
952,836	1,08
953,082	-3,92
953,327	-8,92
953,573	0,08
953,818	-3,92
954,064	8,08
954,309	4,08
954,555	-9,92
954,8	0,08
955,046	-9,92
955,291	-7,92
955,537	-6,92
955,782	-0,92
956,027	-13,92
956,273	-18,92
956,518	3,08
956,764	7,08
957,009	-7,92
957,254	-5,92
957,5	-3,92
957,745	-0,92
957,99	-5,92
958,236	-12,92
958,481	-7,92
958,726	9,08
958,972	-6,92
959,217	-3,92
959,462	10,08
959,707	2,08
959,953	2,08
960,198	-2,92
960,443	-7,92
960,688	-5,92
960,934	1,08
961,179	-4,92
961,424	1,08
961,669	-0,92
961,914	-18,92
962,16	0,08
962,405	4,08
962,65	5,08
962,895	-5,92
963,14	-5,92
963,385	-10,92
963,63	1,08
963,876	2,08
964,121	-7,92
964,366	-2,92
964,611	-5,92
964,856	-3,92
965,101	-5,92
965,346	-6,92
965,591	0,08
965,836	-15,92
966,081	-9,92
966,326	6,08
966,571	14,08
966,816	-6,92
967,061	6,08
967,306	0,08
967,551	12,08
967,796	2,08
968,041	-9,92
968,286	15,08
968,531	-4,92
968,776	-12,92
969,021	-14,92
969,266	-1,92
969,511	-11,92
969,755	-7,92
970	4,08
970,245	-5,92
970,49	1,08
970,735	4,08
970,98	-12,92
971,225	-2,92
971,469	1,08
971,714	-9,92
971,959	-10,92
972,204	-3,92
972,449	-10,92
972,693	-14,92
972,938	1,08
973,183	6,08
973,428	-16,92
973,672	-13,92
973,917	-5,92
974,162	-8,92
974,407	-8,92
974,651	5,08
974,896	-17,92
975,141	4,08
975,385	-3,92
975,63	-1,92
975,875	4,08
976,119	30,08
976,364	-2,92
976,608	-9,92
976,853	-4,92
977,098	6,08
977,342	3,08
977,587	-5,92
977,831	-7,92
978,076	5,08
978,321	-9,92
978,565	3,08
978,81	-2,92
979,054	-10,92
979,299	-10,92
979,543	6,08
979,788	10,08
980,032	-2,92
980,277	1,08
980,521	-6,92
980,766	-4,92
981,01	-3,92
981,255	-6,92
981,499	-3,92
981,743	6,08
981,988	4,08
982,232	-8,92
982,477	-14,92
982,721	9,08
982,965	-2,92
983,21	-5,92
983,454	-3,92
983,699	-8,92
983,943	4,08
984,187	-17,92
984,432	7,08
984,676	-1,92
984,92	-13,92
985,165	0,08
985,409	-1,92
985,653	-3,92
985,897	4,08
986,142	1,08
986,386	-15,92
986,63	-4,92
986,874	-15,92
987,119	-5,92
987,363	-16,92
987,607	-11,92
987,851	-4,92
988,095	-5,92
988,34	-7,92
988,584	2,08
988,828	-19,92
989,072	-12,92
989,316	-2,92
989,56	-8,92
989,804	-4,92
990,049	-17,92
990,293	-13,92
990,537	-10,92
990,781	8,08
991,025	0,08
991,269	-3,92
991,513	-17,92
991,757	1,08
992,001	-22,92
992,245	2,08
992,489	-1,92
992,733	-3,92
992,977	-1,92
993,221	-9,92
993,465	-9,92
993,709	3,08
993,953	2,08
994,197	-0,92
994,441	-16,92
994,685	-5,92
994,929	-6,92
995,173	0,08
995,417	-0,92
995,661	-1,92
995,904	-3,92
996,148	-5,92
996,392	-7,92
996,636	-18,92
996,88	-1,92
997,124	-19,92
997,368	2,08
997,611	5,08
997,855	-8,92
998,099	-9,92
998,343	-8,92
998,587	-6,92
998,83	-7,92
999,074	-2,92
999,318	-14,92
999,562	-8,92
999,805	-2,92
1000,049	-2,92
1000,293	4,08
1000,537	9,08
1000,78	-6,92
1001,024	6,08
1001,268	-1,92
1001,511	-4,92
1001,755	10,08
1001,999	-9,92
1002,242	-8,92
1002,486	3,08
1002,73	-2,92
1002,973	-13,92
1003,217	-2,92
1003,46	-4,92
1003,704	-5,92
1003,948	-5,92
1004,191	-2,92
1004,435	5,08
1004,678	2,08
1004,922	-3,92
1005,165	2,08
1005,409	8,08
1005,652	2,08
1005,896	1,08
1006,139	-2,92
1006,383	3,08
1006,626	-16,92
1006,87	8,08
1007,113	-3,92
1007,357	-14,92
1007,6	9,08
1007,844	-3,92
1008,087	-13,92
1008,33	-8,92
1008,574	6,08
1008,817	-12,92
1009,061	-18,92
1009,304	-11,92
1009,547	-3,92
1009,791	-0,92
1010,034	6,08
1010,277	-2,92
1010,521	4,08
1010,764	-1,92
1011,007	-12,92
1011,251	1,08
1011,494	-13,92
1011,737	-11,92
1011,98	-6,92
1012,224	-9,92
1012,467	-2,92
1012,71	-3,92
1012,953	-4,92
1013,197	3,08
1013,44	-10,92
1013,683	-8,92
1013,926	0,08
1014,169	-5,92
1014,413	1,08
1014,656	-8,92
1014,899	-9,92
1015,142	-5,92
1015,385	-2,92
1015,628	15,08
1015,871	-1,92
1016,115	-4,92
1016,358	-2,92
1016,601	7,08
1016,844	0,08
1017,087	3,08
1017,33	-6,92
1017,573	-2,92
1017,816	-4,92
1018,059	5,08
1018,302	-3,92
1018,545	-13,92
1018,788	-10,92
1019,031	-2,92
1019,274	2,08
1019,517	4,08
1019,76	-1,92
1020,003	-2,92
1020,246	-5,92
1020,489	2,08
1020,732	-13,92
1020,975	-10,92
1021,218	5,08
1021,461	-10,92
1021,703	-7,92
1021,946	1,08
1022,189	-8,92
1022,432	-13,92
1022,675	-5,92
1022,918	9,08
1023,161	-1,92
1023,403	1,08
1023,646	-11,92
1023,889	-8,92
1024,132	3,08
1024,375	2,08
1024,617	-7,92
1024,86	-11,92
1025,103	-3,92
1025,346	-12,92
1025,588	2,08
1025,831	-6,92
1026,074	-5,92
1026,317	-1,92
1026,559	-8,92
1026,802	4,08
1027,045	-1,92
1027,287	9,08
1027,53	0,08
1027,773	-10,92
1028,015	-11,92
1028,258	-4,92
1028,501	-13,92
1028,743	-6,92
1028,986	-11,92
1029,228	0,08
1029,471	4,08
1029,714	0,08
1029,956	-4,92
1030,199	-7,92
1030,441	-9,92
1030,684	-4,92
1030,926	-11,92
1031,169	5,08
1031,411	4,08
1031,654	-1,92
1031,896	-5,92
1032,139	-1,92
1032,381	1,08
1032,624	-1,92
1032,866	-7,92
1033,109	-7,92
1033,351	-19,92
1033,594	-10,92
1033,836	-5,92
1034,079	3,08
1034,321	-15,92
1034,563	-13,92
1034,806	-13,92
1035,048	-6,92
1035,29	-18,92
1035,533	-11,92
1035,775	-4,92
1036,018	1,08
1036,26	-6,92
1036,502	-1,92
1036,744	-3,92
1036,987	-10,92
1037,229	-9,92
1037,471	-15,92
1037,714	9,08
1037,956	-3,92
1038,198	-8,92
1038,44	-2,92
1038,683	7,08
1038,925	7,08
1039,167	-8,92
1039,409	-5,92
1039,651	-2,92
1039,894	-1,92
1040,136	-7,92
1040,378	3,08
1040,62	9,08
1040,862	-2,92
1041,104	-2,92
1041,347	-5,92
1041,589	-0,92
1041,831	0,08
1042,073	-10,92
1042,315	-19,92
1042,557	1,08
1042,799	-1,92
1043,041	-13,92
1043,283	-10,92
1043,525	0,08
1043,767	0,08
1044,009	-13,92
1044,251	-3,92
1044,493	0,08
1044,735	-2,92
1044,977	-16,92
1045,219	-2,92
1045,461	-2,92
1045,703	-10,92
1045,945	-3,92
1046,187	-18,92
1046,429	-14,92
1046,671	-1,92
1046,913	-2,92
1047,155	-3,92
1047,397	6,08
1047,639	-16,92
1047,881	-3,92
1048,122	-7,92
1048,364	-1,92
1048,606	-8,92
1048,848	-0,92
1049,09	-2,92
1049,332	-9,92
1049,573	-10,92
1049,815	-11,92
1050,057	-19,92
1050,299	-11,92
1050,541	1,08
1050,782	-12,92
1051,024	2,08
1051,266	-9,92
1051,508	-0,92
1051,749	1,08
1051,991	-1,92
1052,233	-11,92
1052,474	-4,92
1052,716	-11,92
1052,958	-5,92
1053,199	-5,92
1053,441	-1,92
1053,683	0,08
1053,924	3,08
1054,166	5,08
1054,408	-5,92
1054,649	3,08
1054,891	2,08
1055,132	-4,92
1055,374	-3,92
1055,616	8,08
1055,857	2,08
1056,099	-4,92
1056,34	-16,92
1056,582	-10,92
1056,823	-15,92
1057,065	-5,92
1057,306	-15,92
1057,548	-18,92
1057,789	-2,92
1058,031	2,08
1058,272	3,08
1058,514	-9,92
1058,755	-7,92
1058,997	-0,92
1059,238	-0,92
1059,479	-10,92
1059,721	0,08
1059,962	1,08
1060,204	10,08
1060,445	-10,92
1060,686	-13,92
1060,928	-6,92
1061,169	10,08
1061,41	-0,92
1061,652	17,08
1061,893	-2,92
1062,134	5,08
1062,376	-8,92
1062,617	-12,92
1062,858	-8,92
1063,1	-11,92
1063,341	-7,92
1063,582	2,08
1063,823	9,08
1064,065	-9,92
1064,306	2,08
1064,547	-6,92
1064,788	-2,92
1065,029	6,08
1065,271	-10,92
1065,512	11,08
1065,753	-4,92
1065,994	11,08
1066,235	2,08
1066,476	-13,92
1066,718	-5,92
1066,959	0,08
1067,2	-15,92
1067,441	17,08
1067,682	0,08
1067,923	7,08
1068,164	-2,92
1068,405	-4,92
1068,646	-12,92
1068,887	-6,92
1069,128	4,08
1069,369	3,08
1069,61	-5,92
1069,851	-10,92
1070,092	-15,92
1070,333	-19,92
1070,574	-2,92
1070,815	-7,92
1071,056	-14,92
1071,297	-2,92
1071,538	6,08
1071,779	-4,92
1072,02	-10,92
1072,261	1,08
1072,502	-5,92
1072,743	-4,92
1072,984	-13,92
1073,225	-0,92
1073,466	-4,92
1073,706	10,08
1073,947	3,08
1074,188	8,08
1074,429	12,08
1074,67	1,08
1074,911	-7,92
1075,151	-17,92
1075,392	7,08
1075,633	-0,92
1075,874	-4,92
1076,114	0,08
1076,355	4,08
1076,596	-8,92
1076,837	4,08
1077,077	-1,92
1077,318	-7,92
1077,559	-7,92
1077,8	9,08
1078,04	4,08
1078,281	6,08
1078,522	-7,92
1078,762	-1,92
1079,003	5,08
1079,244	-4,92
1079,484	13,08
1079,725	3,08
1079,965	-5,92
1080,206	-2,92
1080,447	-17,92
1080,687	-10,92
1080,928	-12,92
1081,168	-10,92
1081,409	-2,92
1081,649	3,08
1081,89	5,08
1082,131	14,08
1082,371	5,08
1082,612	-12,92
1082,852	3,08
1083,093	-16,92
1083,333	-5,92
1083,573	-14,92
1083,814	11,08
1084,054	5,08
1084,295	19,08
1084,535	11,08
1084,776	-13,92
1085,016	-11,92
1085,257	-4,92
1085,497	13,08
1085,737	12,08
1085,978	11,08
1086,218	7,08
1086,458	1,08
1086,699	-11,92
1086,939	-5,92
1087,179	-10,92
1087,42	0,08
1087,66	4,08
1087,9	-8,92
1088,141	-7,92
1088,381	-3,92
1088,621	-7,92
1088,861	1,08
1089,102	7,08
1089,342	-7,92
1089,582	4,08
1089,822	2,08
1090,063	2,08
1090,303	-13,92
1090,543	-4,92
1090,783	-6,92
1091,023	-9,92
1091,263	5,08
1091,504	-9,92
1091,744	-5,92
1091,984	6,08
1092,224	4,08
1092,464	3,08
1092,704	1,08
1092,944	0,08
1093,184	-4,92
1093,425	-2,92
1093,665	1,08
1093,905	2,08
1094,145	8,08
1094,385	-7,92
1094,625	-11,92
1094,865	-2,92
1095,105	5,08
1095,345	7,08
1095,585	-14,92
1095,825	-2,92
1096,065	7,08
1096,305	-6,92
1096,545	9,08
1096,785	-11,92
1097,025	-0,92
1097,265	1,08
1097,504	-7,92
1097,744	2,08
1097,984	10,08
1098,224	10,08
1098,464	-6,92
1098,704	0,08
1098,944	-7,92
1099,184	-10,92
1099,423	-14,92
1099,663	-3,92
1099,903	1,08
1100,143	6,08
1100,383	-2,92
1100,622	-1,92
1100,862	-2,92
1101,102	-1,92
1101,342	1,08
1101,582	-3,92
1101,821	-15,92
1102,061	-17,92
1102,301	-1,92
1102,54	2,08
1102,78	-8,92
1103,02	-3,92
1103,26	-4,92
1103,499	4,08
1103,739	16,08
1103,979	6,08
1104,218	10,08
1104,458	-4,92
1104,697	-0,92
1104,937	-11,92
1105,177	3,08
1105,416	-14,92
1105,656	-2,92
1105,896	-10,92
1106,135	-7,92
1106,375	-7,92
1106,614	-5,92
1106,854	12,08
1107,093	-5,92
1107,333	-15,92
1107,572	2,08
1107,812	6,08
1108,051	-5,92
1108,291	1,08
1108,53	0,08
1108,77	-7,92
1109,009	1,08
1109,249	6,08
1109,488	-2,92
1109,728	-7,92
1109,967	-7,92
1110,206	-2,92
1110,446	-12,92
1110,685	-4,92
1110,925	-3,92
1111,164	2,08
1111,403	-3,92
1111,643	18,08
1111,882	5,08
1112,121	-2,92
1112,361	-1,92
1112,6	-10,92
1112,839	1,08
1113,079	1,08
1113,318	5,08
1113,557	3,08
1113,796	6,08
1114,036	-14,92
1114,275	-10,92
1114,514	2,08
1114,753	-1,92
1114,993	7,08
1115,232	-13,92
1115,471	-17,92
1115,71	-9,92
1115,949	9,08
1116,188	-7,92
1116,428	3,08
1116,667	6,08
1116,906	-4,92
1117,145	3,08
1117,384	1,08
1117,623	-4,92
1117,862	-1,92
1118,101	-0,92
1118,341	10,08
1118,58	13,08
1118,819	4,08
1119,058	-5,92
1119,297	-3,92
1119,536	5,08
1119,775	0,08
1120,014	0,08
1120,253	-7,92
1120,492	3,08
1120,731	1,08
1120,97	1,08
1121,209	1,08
1121,448	3,08
1121,687	-2,92
1121,926	-12,92
1122,165	-8,92
1122,404	7,08
1122,642	7,08
1122,881	-13,92
1123,12	-5,92
1123,359	3,08
1123,598	4,08
1123,837	-9,92
1124,076	-7,92
1124,315	2,08
1124,553	-1,92
1124,792	0,08
1125,031	10,08
1125,27	8,08
1125,509	-9,92
1125,747	5,08
1125,986	11,08
1126,225	2,08
