Data from HR4C34221__3__15-09-15-829.txt Node

Date: Fri Apr 07 15:09:15 MSK 2023
User: 123
Spectrometer: HR4C3422
Trigger mode: 4
Integration Time (sec): 6,000000E-3
Scans to average: 1
Electric dark correction enabled: true
Nonlinearity correction enabled: false
Boxcar width: 0
XAxis mode: Wavelengths
Number of Pixels in Spectrum: 3648
>>>>>Begin Spectral Data<<<<<
195,326	-90,92
195,597	-90,92
195,868	-90,92
196,139	2,08
196,409	-1,92
196,68	2,08
196,951	7,08
197,221	4,08
197,492	2,08
197,762	6,08
198,033	-1,92
198,304	-2,92
198,574	1,08
198,845	-11,92
199,116	-3,92
199,386	-0,92
199,657	7,08
199,927	-7,92
200,198	5,08
200,468	6,08
200,739	23,08
201,009	-2,92
201,28	16,08
201,551	11,08
201,821	3,08
202,092	9,08
202,362	14,08
202,633	8,08
202,903	14,08
203,174	16,08
203,444	5,08
203,714	2,08
203,985	14,08
204,255	-9,92
204,526	8,08
204,796	4,08
205,067	-0,92
205,337	-1,92
205,607	-0,92
205,878	10,08
206,148	-1,92
206,419	-3,92
206,689	4,08
206,959	-11,92
207,23	0,08
207,5	-1,92
207,77	-0,92
208,041	-9,92
208,311	-2,92
208,581	-5,92
208,852	4,08
209,122	-0,92
209,392	-10,92
209,663	-1,92
209,933	-1,92
210,203	19,08
210,473	5,08
210,744	18,08
211,014	4,08
211,284	-1,92
211,554	7,08
211,825	8,08
212,095	-5,92
212,365	6,08
212,635	7,08
212,905	8,08
213,176	8,08
213,446	-3,92
213,716	-5,92
213,986	-3,92
214,256	8,08
214,526	8,08
214,797	8,08
215,067	11,08
215,337	16,08
215,607	6,08
215,877	-6,92
216,147	-6,92
216,417	9,08
216,687	-13,92
216,957	-2,92
217,227	-1,92
217,497	-11,92
217,767	-6,92
218,038	7,08
218,308	-1,92
218,578	0,08
218,848	1,08
219,118	0,08
219,388	8,08
219,658	4,08
219,928	15,08
220,198	13,08
220,468	1,08
220,737	10,08
221,007	10,08
221,277	4,08
221,547	9,08
221,817	8,08
222,087	-4,92
222,357	-0,92
222,627	1,08
222,897	0,08
223,167	-5,92
223,437	5,08
223,707	-3,92
223,976	2,08
224,246	3,08
224,516	3,08
224,786	4,08
225,056	11,08
225,326	0,08
225,595	1,08
225,865	11,08
226,135	6,08
226,405	25,08
226,675	9,08
226,944	13,08
227,214	15,08
227,484	7,08
227,754	7,08
228,023	14,08
228,293	6,08
228,563	-5,92
228,833	-5,92
229,102	-2,92
229,372	-14,92
229,642	5,08
229,911	-0,92
230,181	6,08
230,451	-0,92
230,72	5,08
230,99	5,08
231,26	-3,92
231,529	11,08
231,799	10,08
232,069	14,08
232,338	21,08
232,608	19,08
232,877	8,08
233,147	14,08
233,417	13,08
233,686	6,08
233,956	8,08
234,225	0,08
234,495	-3,92
234,764	-10,92
235,034	0,08
235,304	5,08
235,573	21,08
235,843	7,08
236,112	6,08
236,382	6,08
236,651	8,08
236,921	10,08
237,19	-0,92
237,46	-5,92
237,729	4,08
237,998	7,08
238,268	-4,92
238,537	18,08
238,807	3,08
239,076	1,08
239,346	-5,92
239,615	-3,92
239,884	12,08
240,154	-2,92
240,423	12,08
240,693	6,08
240,962	-3,92
241,231	18,08
241,501	3,08
241,77	3,08
242,039	8,08
242,309	-7,92
242,578	-11,92
242,847	17,08
243,116	-0,92
243,386	-1,92
243,655	-5,92
243,924	9,08
244,194	-0,92
244,463	-3,92
244,732	-3,92
245,001	-2,92
245,271	1,08
245,54	3,08
245,809	-2,92
246,078	-5,92
246,347	0,08
246,617	10,08
246,886	10,08
247,155	-2,92
247,424	2,08
247,693	3,08
247,963	-7,92
248,232	6,08
248,501	-8,92
248,77	3,08
249,039	-6,92
249,308	3,08
249,577	2,08
249,846	0,08
250,115	3,08
250,385	15,08
250,654	-6,92
250,923	8,08
251,192	-0,92
251,461	15,08
251,73	18,08
251,999	5,08
252,268	16,08
252,537	19,08
252,806	3,08
253,075	2,08
253,344	-4,92
253,613	8,08
253,882	-2,92
254,151	9,08
254,42	15,08
254,689	16,08
254,958	-2,92
255,227	10,08
255,496	7,08
255,765	4,08
256,033	18,08
256,302	1,08
256,571	-10,92
256,84	9,08
257,109	-0,92
257,378	6,08
257,647	-10,92
257,916	2,08
258,184	8,08
258,453	7,08
258,722	11,08
258,991	7,08
259,26	-4,92
259,529	6,08
259,797	9,08
260,066	-3,92
260,335	18,08
260,604	2,08
260,873	-3,92
261,141	8,08
261,41	3,08
261,679	6,08
261,948	9,08
262,216	-2,92
262,485	11,08
262,754	12,08
263,022	22,08
263,291	6,08
263,56	7,08
263,829	9,08
264,097	6,08
264,366	-4,92
264,635	14,08
264,903	4,08
265,172	8,08
265,44	3,08
265,709	9,08
265,978	1,08
266,246	12,08
266,515	9,08
266,784	-0,92
267,052	5,08
267,321	-2,92
267,589	6,08
267,858	-0,92
268,126	13,08
268,395	17,08
268,663	3,08
268,932	12,08
269,201	3,08
269,469	3,08
269,738	4,08
270,006	3,08
270,275	16,08
270,543	11,08
270,811	13,08
271,08	3,08
271,348	0,08
271,617	10,08
271,885	0,08
272,154	9,08
272,422	5,08
272,691	8,08
272,959	6,08
273,227	7,08
273,496	0,08
273,764	2,08
274,033	16,08
274,301	-6,92
274,569	9,08
274,838	2,08
275,106	-3,92
275,374	3,08
275,643	5,08
275,911	18,08
276,179	2,08
276,448	5,08
276,716	4,08
276,984	-4,92
277,252	1,08
277,521	6,08
277,789	-2,92
278,057	-6,92
278,325	4,08
278,594	-4,92
278,862	4,08
279,13	0,08
279,398	-0,92
279,667	-2,92
279,935	-0,92
280,203	10,08
280,471	8,08
280,739	-4,92
281,008	-1,92
281,276	15,08
281,544	-4,92
281,812	11,08
282,08	-0,92
282,348	-4,92
282,616	9,08
282,884	5,08
283,153	9,08
283,421	4,08
283,689	6,08
283,957	8,08
284,225	1,08
284,493	5,08
284,761	5,08
285,029	8,08
285,297	-4,92
285,565	2,08
285,833	-2,92
286,101	2,08
286,369	-1,92
286,637	0,08
286,905	-4,92
287,173	1,08
287,441	14,08
287,709	-4,92
287,977	4,08
288,245	5,08
288,513	1,08
288,781	-5,92
289,049	-2,92
289,317	1,08
289,585	11,08
289,853	-4,92
290,12	5,08
290,388	-2,92
290,656	-8,92
290,924	-4,92
291,192	8,08
291,46	12,08
291,728	14,08
291,996	19,08
292,263	-13,92
292,531	9,08
292,799	8,08
293,067	-1,92
293,335	8,08
293,602	1,08
293,87	4,08
294,138	14,08
294,406	-7,92
294,673	-2,92
294,941	0,08
295,209	-7,92
295,477	-8,92
295,744	10,08
296,012	24,08
296,28	-11,92
296,548	0,08
296,815	0,08
297,083	-10,92
297,351	1,08
297,618	-0,92
297,886	-4,92
298,154	3,08
298,421	-5,92
298,689	7,08
298,956	8,08
299,224	6,08
299,492	-1,92
299,759	13,08
300,027	7,08
300,294	4,08
300,562	-0,92
300,83	3,08
301,097	10,08
301,365	-6,92
301,632	2,08
301,9	3,08
302,167	-6,92
302,435	7,08
302,702	-0,92
302,97	-10,92
303,237	3,08
303,505	5,08
303,772	18,08
304,04	20,08
304,307	-3,92
304,575	-1,92
304,842	-4,92
305,11	4,08
305,377	7,08
305,645	0,08
305,912	-6,92
306,179	-7,92
306,447	0,08
306,714	4,08
306,982	-1,92
307,249	-0,92
307,516	8,08
307,784	-9,92
308,051	-0,92
308,318	4,08
308,586	0,08
308,853	1,08
309,12	3,08
309,388	4,08
309,655	-0,92
309,922	0,08
310,19	2,08
310,457	-4,92
310,724	1,08
310,991	-16,92
311,259	-7,92
311,526	8,08
311,793	-9,92
312,06	7,08
312,328	-4,92
312,595	3,08
312,862	3,08
313,129	-2,92
313,396	-0,92
313,664	2,08
313,931	-4,92
314,198	-5,92
314,465	23,08
314,732	11,08
314,999	1,08
315,266	-6,92
315,534	-10,92
315,801	4,08
316,068	9,08
316,335	-0,92
316,602	15,08
316,869	0,08
317,136	0,08
317,403	-1,92
317,67	4,08
317,937	15,08
318,204	12,08
318,471	5,08
318,738	2,08
319,005	6,08
319,272	-9,92
319,539	-2,92
319,806	13,08
320,073	10,08
320,34	-5,92
320,607	3,08
320,874	-7,92
321,141	-4,92
321,408	11,08
321,675	-0,92
321,942	10,08
322,209	2,08
322,476	-2,92
322,743	-3,92
323,01	-1,92
323,277	10,08
323,544	17,08
323,81	3,08
324,077	7,08
324,344	15,08
324,611	7,08
324,878	-12,92
325,145	-1,92
325,412	-3,92
325,678	2,08
325,945	7,08
326,212	-9,92
326,479	-2,92
326,746	0,08
327,012	-5,92
327,279	4,08
327,546	14,08
327,813	14,08
328,079	-2,92
328,346	6,08
328,613	2,08
328,88	11,08
329,146	7,08
329,413	-2,92
329,68	6,08
329,946	-0,92
330,213	9,08
330,48	2,08
330,746	8,08
331,013	18,08
331,28	10,08
331,546	3,08
331,813	-1,92
332,08	-11,92
332,346	-10,92
332,613	6,08
332,879	7,08
333,146	-1,92
333,413	7,08
333,679	2,08
333,946	-2,92
334,212	-1,92
334,479	5,08
334,745	7,08
335,012	1,08
335,278	-8,92
335,545	8,08
335,811	-10,92
336,078	0,08
336,344	7,08
336,611	6,08
336,877	-7,92
337,144	4,08
337,41	1,08
337,677	3,08
337,943	-0,92
338,21	-4,92
338,476	0,08
338,742	-3,92
339,009	-4,92
339,275	2,08
339,542	7,08
339,808	-6,92
340,074	0,08
340,341	-6,92
340,607	-4,92
340,873	8,08
341,14	4,08
341,406	7,08
341,672	-4,92
341,939	-0,92
342,205	-5,92
342,471	-5,92
342,738	8,08
343,004	-10,92
343,27	-4,92
343,537	-3,92
343,803	5,08
344,069	-10,92
344,335	-0,92
344,602	-12,92
344,868	-7,92
345,134	14,08
345,4	-5,92
345,666	16,08
345,933	10,08
346,199	5,08
346,465	4,08
346,731	8,08
346,997	9,08
347,263	11,08
347,53	-6,92
347,796	-6,92
348,062	-1,92
348,328	4,08
348,594	20,08
348,86	2,08
349,126	0,08
349,392	-2,92
349,659	-4,92
349,925	1,08
350,191	12,08
350,457	6,08
350,723	6,08
350,989	9,08
351,255	-1,92
351,521	0,08
351,787	6,08
352,053	6,08
352,319	10,08
352,585	-3,92
352,851	-2,92
353,117	19,08
353,383	4,08
353,649	6,08
353,915	9,08
354,181	-9,92
354,447	1,08
354,713	7,08
354,978	1,08
355,244	0,08
355,51	2,08
355,776	4,08
356,042	-11,92
356,308	-2,92
356,574	7,08
356,84	-3,92
357,106	-11,92
357,371	-1,92
357,637	1,08
357,903	17,08
358,169	7,08
358,435	8,08
358,701	7,08
358,966	4,08
359,232	-4,92
359,498	10,08
359,764	-4,92
360,029	4,08
360,295	2,08
360,561	6,08
360,827	-10,92
361,092	-2,92
361,358	6,08
361,624	14,08
361,89	11,08
362,155	-3,92
362,421	2,08
362,687	0,08
362,952	-10,92
363,218	2,08
363,484	2,08
363,749	6,08
364,015	-1,92
364,281	-15,92
364,546	-6,92
364,812	10,08
365,077	7,08
365,343	-1,92
365,609	-0,92
365,874	5,08
366,14	-3,92
366,405	15,08
366,671	0,08
366,936	-3,92
367,202	18,08
367,467	-0,92
367,733	1,08
367,999	14,08
368,264	-1,92
368,53	-1,92
368,795	-12,92
369,061	-4,92
369,326	10,08
369,591	-0,92
369,857	-7,92
370,122	8,08
370,388	15,08
370,653	11,08
370,919	-1,92
371,184	0,08
371,45	1,08
371,715	9,08
371,98	9,08
372,246	16,08
372,511	8,08
372,776	-4,92
373,042	-6,92
373,307	4,08
373,573	3,08
373,838	17,08
374,103	-5,92
374,369	-3,92
374,634	-1,92
374,899	-4,92
375,164	7,08
375,43	3,08
375,695	7,08
375,96	-2,92
376,226	5,08
376,491	9,08
376,756	15,08
377,021	0,08
377,286	-7,92
377,552	17,08
377,817	-0,92
378,082	1,08
378,347	2,08
378,613	-3,92
378,878	2,08
379,143	7,08
379,408	0,08
379,673	-13,92
379,938	11,08
380,203	19,08
380,469	-11,92
380,734	-15,92
380,999	-1,92
381,264	8,08
381,529	12,08
381,794	15,08
382,059	2,08
382,324	0,08
382,589	7,08
382,854	5,08
383,119	0,08
383,385	2,08
383,65	6,08
383,915	8,08
384,18	5,08
384,445	3,08
384,71	11,08
384,975	3,08
385,24	-5,92
385,505	4,08
385,77	1,08
386,034	7,08
386,299	4,08
386,564	20,08
386,829	17,08
387,094	6,08
387,359	11,08
387,624	8,08
387,889	4,08
388,154	-1,92
388,419	-1,92
388,684	11,08
388,949	9,08
389,213	-1,92
389,478	-2,92
389,743	8,08
390,008	5,08
390,273	-1,92
390,538	8,08
390,802	7,08
391,067	6,08
391,332	17,08
391,597	-8,92
391,862	-7,92
392,126	0,08
392,391	-3,92
392,656	-0,92
392,921	-3,92
393,185	0,08
393,45	-0,92
393,715	7,08
393,979	-0,92
394,244	8,08
394,509	17,08
394,774	15,08
395,038	11,08
395,303	3,08
395,568	4,08
395,832	5,08
396,097	8,08
396,361	2,08
396,626	5,08
396,891	18,08
397,155	6,08
397,42	13,08
397,685	9,08
397,949	-1,92
398,214	3,08
398,478	4,08
398,743	5,08
399,007	-0,92
399,272	-13,92
399,536	9,08
399,801	8,08
400,066	6,08
400,33	2,08
400,595	0,08
400,859	14,08
401,124	3,08
401,388	15,08
401,652	0,08
401,917	-12,92
402,181	0,08
402,446	3,08
402,71	7,08
402,975	-9,92
403,239	0,08
403,504	11,08
403,768	13,08
404,032	-1,92
404,297	-4,92
404,561	13,08
404,826	-4,92
405,09	-2,92
405,354	0,08
405,619	18,08
405,883	0,08
406,147	10,08
406,412	4,08
406,676	5,08
406,94	-0,92
407,205	16,08
407,469	12,08
407,733	-3,92
407,997	11,08
408,262	13,08
408,526	11,08
408,79	8,08
409,054	8,08
409,319	6,08
409,583	4,08
409,847	-4,92
410,111	9,08
410,375	13,08
410,64	11,08
410,904	4,08
411,168	-7,92
411,432	18,08
411,696	6,08
411,96	-1,92
412,225	21,08
412,489	16,08
412,753	6,08
413,017	19,08
413,281	4,08
413,545	20,08
413,809	12,08
414,073	0,08
414,337	-4,92
414,602	8,08
414,866	2,08
415,13	-1,92
415,394	7,08
415,658	19,08
415,922	7,08
416,186	5,08
416,45	18,08
416,714	19,08
416,978	19,08
417,242	14,08
417,506	14,08
417,77	23,08
418,034	10,08
418,298	21,08
418,562	16,08
418,825	12,08
419,089	13,08
419,353	15,08
419,617	31,08
419,881	22,08
420,145	26,08
420,409	24,08
420,673	16,08
420,937	19,08
421,2	30,08
421,464	32,08
421,728	20,08
421,992	31,08
422,256	38,08
422,52	30,08
422,783	32,08
423,047	45,08
423,311	39,08
423,575	53,08
423,839	52,08
424,102	37,08
424,366	31,08
424,63	45,08
424,894	58,08
425,157	49,08
425,421	58,08
425,685	61,08
425,949	50,08
426,212	67,08
426,476	48,08
426,74	72,08
427,003	60,08
427,267	64,08
427,531	75,08
427,794	78,08
428,058	84,08
428,322	98,08
428,585	97,08
428,849	89,08
429,112	102,08
429,376	88,08
429,64	96,08
429,903	116,08
430,167	102,08
430,43	112,08
430,694	117,08
430,957	128,08
431,221	122,08
431,485	144,08
431,748	145,08
432,012	153,08
432,275	128,08
432,539	138,08
432,802	159,08
433,066	158,08
433,329	164,08
433,593	155,08
433,856	188,08
434,119	185,08
434,383	204,08
434,646	204,08
434,91	182,08
435,173	210,08
435,437	211,08
435,7	206,08
435,963	224,08
436,227	236,08
436,49	236,08
436,753	253,08
437,017	259,08
437,28	278,08
437,544	269,08
437,807	273,08
438,07	277,08
438,334	288,08
438,597	298,08
438,86	321,08
439,123	323,08
439,387	314,08
439,65	324,08
439,913	348,08
440,177	339,08
440,44	341,08
440,703	371,08
440,966	371,08
441,229	400,08
441,493	375,08
441,756	422,08
442,019	405,08
442,282	394,08
442,545	424,08
442,809	437,08
443,072	433,08
443,335	455,08
443,598	467,08
443,861	478,08
444,124	502,08
444,388	491,08
444,651	513,08
444,914	538,08
445,177	560,08
445,44	569,08
445,703	559,08
445,966	564,08
446,229	586,08
446,492	586,08
446,755	633,08
447,018	623,08
447,281	654,08
447,544	659,08
447,807	696,08
448,07	712,08
448,333	678,08
448,596	693,08
448,859	759,08
449,122	770,08
449,385	768,08
449,648	777,08
449,911	814,08
450,174	829,08
450,437	818,08
450,7	840,08
450,963	822,08
451,226	854,08
451,489	850,08
451,752	888,08
452,015	910,08
452,277	864,08
452,54	917,08
452,803	876,08
453,066	918,08
453,329	923,08
453,592	957,08
453,855	912,08
454,117	904,08
454,38	915,08
454,643	904,08
454,906	904,08
455,169	857,08
455,431	865,08
455,694	835,08
455,957	809,08
456,22	859,08
456,482	834,08
456,745	801,08
457,008	815,08
457,271	802,08
457,533	776,08
457,796	735,08
458,059	729,08
458,321	694,08
458,584	681,08
458,847	661,08
459,109	641,08
459,372	645,08
459,635	600,08
459,897	591,08
460,16	576,08
460,423	528,08
460,685	519,08
460,948	507,08
461,21	476,08
461,473	469,08
461,735	416,08
461,998	408,08
462,261	408,08
462,523	408,08
462,786	365,08
463,048	364,08
463,311	347,08
463,573	335,08
463,836	306,08
464,098	282,08
464,361	267,08
464,623	290,08
464,886	249,08
465,148	255,08
465,411	257,08
465,673	268,08
465,936	258,08
466,198	224,08
466,46	230,08
466,723	206,08
466,985	217,08
467,248	217,08
467,51	204,08
467,772	186,08
468,035	174,08
468,297	191,08
468,56	169,08
468,822	174,08
469,084	163,08
469,347	161,08
469,609	150,08
469,871	162,08
470,133	148,08
470,396	159,08
470,658	146,08
470,92	135,08
471,183	150,08
471,445	127,08
471,707	135,08
471,969	139,08
472,232	120,08
472,494	118,08
472,756	117,08
473,018	123,08
473,281	129,08
473,543	114,08
473,805	103,08
474,067	107,08
474,329	114,08
474,591	87,08
474,854	94,08
475,116	99,08
475,378	84,08
475,64	90,08
475,902	60,08
476,164	85,08
476,426	87,08
476,688	96,08
476,951	79,08
477,213	87,08
477,475	66,08
477,737	77,08
477,999	61,08
478,261	63,08
478,523	59,08
478,785	72,08
479,047	61,08
479,309	62,08
479,571	59,08
479,833	58,08
480,095	60,08
480,357	53,08
480,619	52,08
480,881	36,08
481,143	54,08
481,405	42,08
481,667	44,08
481,929	50,08
482,191	39,08
482,452	47,08
482,714	46,08
482,976	49,08
483,238	44,08
483,5	40,08
483,762	54,08
484,024	48,08
484,286	45,08
484,547	58,08
484,809	41,08
485,071	49,08
485,333	40,08
485,595	41,08
485,857	35,08
486,118	32,08
486,38	36,08
486,642	22,08
486,904	21,08
487,165	39,08
487,427	36,08
487,689	33,08
487,951	28,08
488,212	35,08
488,474	25,08
488,736	32,08
488,998	24,08
489,259	34,08
489,521	34,08
489,783	32,08
490,044	23,08
490,306	27,08
490,568	37,08
490,829	36,08
491,091	23,08
491,353	39,08
491,614	33,08
491,876	39,08
492,137	27,08
492,399	35,08
492,661	26,08
492,922	42,08
493,184	31,08
493,445	22,08
493,707	18,08
493,968	13,08
494,23	20,08
494,491	22,08
494,753	28,08
495,014	28,08
495,276	32,08
495,537	17,08
495,799	21,08
496,06	24,08
496,322	33,08
496,583	25,08
496,845	11,08
497,106	24,08
497,368	26,08
497,629	28,08
497,89	25,08
498,152	33,08
498,413	17,08
498,675	12,08
498,936	9,08
499,197	17,08
499,459	14,08
499,72	22,08
499,981	11,08
500,243	20,08
500,504	22,08
500,765	27,08
501,027	27,08
501,288	19,08
501,549	12,08
501,811	18,08
502,072	27,08
502,333	18,08
502,594	10,08
502,856	1,08
503,117	7,08
503,378	10,08
503,639	29,08
503,901	19,08
504,162	6,08
504,423	21,08
504,684	15,08
504,945	17,08
505,207	15,08
505,468	21,08
505,729	10,08
505,99	18,08
506,251	17,08
506,512	17,08
506,774	15,08
507,035	7,08
507,296	20,08
507,557	24,08
507,818	13,08
508,079	15,08
508,34	3,08
508,601	28,08
508,862	21,08
509,123	21,08
509,384	23,08
509,645	12,08
509,906	10,08
510,167	22,08
510,428	16,08
510,689	12,08
510,95	7,08
511,211	15,08
511,472	21,08
511,733	11,08
511,994	14,08
512,255	13,08
512,516	16,08
512,777	17,08
513,038	29,08
513,299	13,08
513,56	9,08
513,821	17,08
514,082	14,08
514,343	16,08
514,603	22,08
514,864	15,08
515,125	22,08
515,386	6,08
515,647	4,08
515,908	-4,92
516,169	18,08
516,429	10,08
516,69	4,08
516,951	15,08
517,212	12,08
517,473	27,08
517,733	7,08
517,994	9,08
518,255	3,08
518,516	11,08
518,776	13,08
519,037	7,08
519,298	-0,92
519,559	11,08
519,819	8,08
520,08	3,08
520,341	11,08
520,601	13,08
520,862	-0,92
521,123	2,08
521,383	15,08
521,644	6,08
521,905	-2,92
522,165	7,08
522,426	-1,92
522,686	10,08
522,947	15,08
523,208	7,08
523,468	1,08
523,729	1,08
523,989	3,08
524,25	10,08
524,51	18,08
524,771	-2,92
525,032	10,08
525,292	4,08
525,553	-2,92
525,813	12,08
526,074	9,08
526,334	1,08
526,595	13,08
526,855	-1,92
527,116	2,08
527,376	-1,92
527,636	-2,92
527,897	3,08
528,157	10,08
528,418	2,08
528,678	6,08
528,939	-1,92
529,199	2,08
529,459	7,08
529,72	8,08
529,98	11,08
530,24	16,08
530,501	15,08
530,761	22,08
531,022	9,08
531,282	18,08
531,542	2,08
531,803	9,08
532,063	10,08
532,323	8,08
532,583	18,08
532,844	17,08
533,104	7,08
533,364	-1,92
533,624	4,08
533,885	8,08
534,145	-1,92
534,405	7,08
534,665	7,08
534,926	21,08
535,186	7,08
535,446	3,08
535,706	2,08
535,966	4,08
536,227	-9,92
536,487	3,08
536,747	-1,92
537,007	0,08
537,267	-19,92
537,527	5,08
537,787	9,08
538,048	4,08
538,308	-1,92
538,568	3,08
538,828	2,08
539,088	16,08
539,348	6,08
539,608	2,08
539,868	3,08
540,128	-4,92
540,388	0,08
540,648	14,08
540,908	-4,92
541,168	10,08
541,428	10,08
541,688	20,08
541,948	0,08
542,208	21,08
542,468	11,08
542,728	11,08
542,988	12,08
543,248	17,08
543,508	6,08
543,768	-5,92
544,028	0,08
544,288	8,08
544,548	21,08
544,807	8,08
545,067	11,08
545,327	21,08
545,587	15,08
545,847	12,08
546,107	8,08
546,367	15,08
546,626	14,08
546,886	20,08
547,146	14,08
547,406	4,08
547,666	5,08
547,925	16,08
548,185	12,08
548,445	8,08
548,705	-1,92
548,965	5,08
549,224	16,08
549,484	5,08
549,744	3,08
550,003	0,08
550,263	5,08
550,523	15,08
550,783	3,08
551,042	15,08
551,302	9,08
551,562	2,08
551,821	27,08
552,081	18,08
552,341	-7,92
552,6	-3,92
552,86	-2,92
553,119	8,08
553,379	10,08
553,639	2,08
553,898	16,08
554,158	11,08
554,417	9,08
554,677	9,08
554,936	11,08
555,196	14,08
555,456	8,08
555,715	6,08
555,975	15,08
556,234	7,08
556,494	17,08
556,753	5,08
557,013	-2,92
557,272	11,08
557,532	31,08
557,791	14,08
558,051	-3,92
558,31	-8,92
558,569	13,08
558,829	4,08
559,088	6,08
559,348	7,08
559,607	5,08
559,866	2,08
560,126	8,08
560,385	9,08
560,645	16,08
560,904	3,08
561,163	11,08
561,423	13,08
561,682	11,08
561,941	18,08
562,201	1,08
562,46	8,08
562,719	12,08
562,979	4,08
563,238	-0,92
563,497	17,08
563,756	2,08
564,016	4,08
564,275	0,08
564,534	8,08
564,793	-2,92
565,053	-5,92
565,312	14,08
565,571	8,08
565,83	13,08
566,089	1,08
566,349	4,08
566,608	1,08
566,867	4,08
567,126	-1,92
567,385	13,08
567,644	15,08
567,903	-11,92
568,163	2,08
568,422	2,08
568,681	9,08
568,94	5,08
569,199	-3,92
569,458	5,08
569,717	-0,92
569,976	9,08
570,235	3,08
570,494	6,08
570,753	-5,92
571,012	8,08
571,271	-1,92
571,53	3,08
571,789	13,08
572,048	10,08
572,307	6,08
572,566	16,08
572,825	4,08
573,084	13,08
573,343	5,08
573,602	-0,92
573,861	6,08
574,12	13,08
574,379	-6,92
574,638	-1,92
574,897	7,08
575,156	17,08
575,414	20,08
575,673	8,08
575,932	4,08
576,191	7,08
576,45	11,08
576,709	4,08
576,968	11,08
577,226	9,08
577,485	1,08
577,744	1,08
578,003	5,08
578,262	17,08
578,52	1,08
578,779	20,08
579,038	6,08
579,297	12,08
579,555	24,08
579,814	5,08
580,073	7,08
580,332	2,08
580,59	0,08
580,849	10,08
581,108	15,08
581,366	3,08
581,625	3,08
581,884	7,08
582,142	-6,92
582,401	14,08
582,66	9,08
582,918	9,08
583,177	-2,92
583,436	8,08
583,694	16,08
583,953	10,08
584,211	11,08
584,47	2,08
584,728	5,08
584,987	15,08
585,246	4,08
585,504	-2,92
585,763	-1,92
586,021	4,08
586,28	5,08
586,538	20,08
586,797	1,08
587,055	6,08
587,314	15,08
587,572	11,08
587,831	4,08
588,089	3,08
588,348	0,08
588,606	-1,92
588,864	7,08
589,123	9,08
589,381	14,08
589,64	-0,92
589,898	5,08
590,157	7,08
590,415	16,08
590,673	11,08
590,932	-4,92
591,19	13,08
591,448	7,08
591,707	17,08
591,965	-3,92
592,223	13,08
592,482	8,08
592,74	12,08
592,998	6,08
593,257	14,08
593,515	0,08
593,773	-1,92
594,031	6,08
594,29	12,08
594,548	8,08
594,806	8,08
595,064	4,08
595,323	-8,92
595,581	-1,92
595,839	5,08
596,097	5,08
596,355	-4,92
596,613	2,08
596,872	5,08
597,13	7,08
597,388	11,08
597,646	-0,92
597,904	12,08
598,162	20,08
598,42	3,08
598,679	16,08
598,937	3,08
599,195	-3,92
599,453	-1,92
599,711	4,08
599,969	-2,92
600,227	10,08
600,485	4,08
600,743	1,08
601,001	7,08
601,259	2,08
601,517	8,08
601,775	4,08
602,033	0,08
602,291	17,08
602,549	14,08
602,807	11,08
603,065	7,08
603,323	2,08
603,581	16,08
603,839	6,08
604,097	5,08
604,355	11,08
604,613	18,08
604,871	1,08
605,128	1,08
605,386	8,08
605,644	4,08
605,902	4,08
606,16	20,08
606,418	6,08
606,676	5,08
606,933	-5,92
607,191	2,08
607,449	6,08
607,707	3,08
607,965	2,08
608,223	4,08
608,48	3,08
608,738	7,08
608,996	13,08
609,254	4,08
609,511	3,08
609,769	-0,92
610,027	16,08
610,285	-0,92
610,542	4,08
610,8	6,08
611,058	11,08
611,315	3,08
611,573	3,08
611,831	4,08
612,088	-2,92
612,346	-0,92
612,604	10,08
612,861	2,08
613,119	0,08
613,376	1,08
613,634	-7,92
613,892	2,08
614,149	-5,92
614,407	0,08
614,664	0,08
614,922	12,08
615,18	17,08
615,437	7,08
615,695	1,08
615,952	10,08
616,21	0,08
616,467	9,08
616,725	-1,92
616,982	-2,92
617,24	2,08
617,497	9,08
617,755	8,08
618,012	8,08
618,27	18,08
618,527	1,08
618,784	-2,92
619,042	9,08
619,299	0,08
619,557	7,08
619,814	9,08
620,071	9,08
620,329	1,08
620,586	14,08
620,844	14,08
621,101	3,08
621,358	-10,92
621,616	2,08
621,873	12,08
622,13	4,08
622,388	5,08
622,645	1,08
622,902	9,08
623,159	-2,92
623,417	11,08
623,674	11,08
623,931	6,08
624,188	8,08
624,446	4,08
624,703	9,08
624,96	6,08
625,217	20,08
625,475	10,08
625,732	5,08
625,989	6,08
626,246	3,08
626,503	8,08
626,761	1,08
627,018	-1,92
627,275	16,08
627,532	21,08
627,789	17,08
628,046	15,08
628,303	11,08
628,56	6,08
628,818	6,08
629,075	18,08
629,332	-3,92
629,589	1,08
629,846	10,08
630,103	8,08
630,36	8,08
630,617	2,08
630,874	-0,92
631,131	5,08
631,388	-2,92
631,645	8,08
631,902	5,08
632,159	4,08
632,416	5,08
632,673	17,08
632,93	7,08
633,187	0,08
633,444	0,08
633,701	12,08
633,958	15,08
634,215	6,08
634,471	10,08
634,728	1,08
634,985	2,08
635,242	8,08
635,499	13,08
635,756	9,08
636,013	3,08
636,27	13,08
636,526	-1,92
636,783	-0,92
637,04	3,08
637,297	7,08
637,554	-8,92
637,81	-5,92
638,067	5,08
638,324	12,08
638,581	0,08
638,838	-0,92
639,094	10,08
639,351	16,08
639,608	7,08
639,864	7,08
640,121	19,08
640,378	-0,92
640,635	4,08
640,891	7,08
641,148	2,08
641,405	0,08
641,661	8,08
641,918	-2,92
642,175	-1,92
642,431	0,08
642,688	1,08
642,944	-0,92
643,201	-0,92
643,458	3,08
643,714	0,08
643,971	-1,92
644,227	-4,92
644,484	-9,92
644,741	-12,92
644,997	6,08
645,254	-1,92
645,51	4,08
645,767	0,08
646,023	-1,92
646,28	8,08
646,536	7,08
646,793	19,08
647,049	5,08
647,306	3,08
647,562	4,08
647,819	2,08
648,075	4,08
648,331	10,08
648,588	14,08
648,844	15,08
649,101	6,08
649,357	4,08
649,613	0,08
649,87	9,08
650,126	17,08
650,383	7,08
650,639	5,08
650,895	1,08
651,152	0,08
651,408	2,08
651,664	10,08
651,921	-0,92
652,177	8,08
652,433	20,08
652,689	13,08
652,946	-4,92
653,202	0,08
653,458	4,08
653,715	-5,92
653,971	9,08
654,227	6,08
654,483	25,08
654,739	26,08
654,996	2,08
655,252	5,08
655,508	7,08
655,764	5,08
656,02	1,08
656,277	9,08
656,533	9,08
656,789	2,08
657,045	6,08
657,301	14,08
657,557	5,08
657,813	15,08
658,07	4,08
658,326	11,08
658,582	11,08
658,838	17,08
659,094	16,08
659,35	20,08
659,606	10,08
659,862	5,08
660,118	19,08
660,374	12,08
660,63	4,08
660,886	17,08
661,142	17,08
661,398	19,08
661,654	26,08
661,91	21,08
662,166	15,08
662,422	26,08
662,678	17,08
662,934	17,08
663,19	20,08
663,446	14,08
663,702	27,08
663,957	25,08
664,213	26,08
664,469	19,08
664,725	25,08
664,981	30,08
665,237	31,08
665,493	27,08
665,749	27,08
666,004	22,08
666,26	22,08
666,516	33,08
666,772	25,08
667,028	27,08
667,283	24,08
667,539	32,08
667,795	38,08
668,051	33,08
668,307	35,08
668,562	36,08
668,818	25,08
669,074	36,08
669,329	47,08
669,585	44,08
669,841	39,08
670,097	37,08
670,352	51,08
670,608	47,08
670,864	52,08
671,119	34,08
671,375	44,08
671,631	37,08
671,886	48,08
672,142	58,08
672,397	47,08
672,653	59,08
672,909	69,08
673,164	59,08
673,42	56,08
673,675	49,08
673,931	55,08
674,186	58,08
674,442	65,08
674,698	54,08
674,953	68,08
675,209	63,08
675,464	56,08
675,72	48,08
675,975	67,08
676,231	58,08
676,486	86,08
676,742	58,08
676,997	80,08
677,252	62,08
677,508	72,08
677,763	75,08
678,019	74,08
678,274	74,08
678,53	80,08
678,785	70,08
679,04	68,08
679,296	92,08
679,551	107,08
679,806	98,08
680,062	75,08
680,317	64,08
680,572	84,08
680,828	75,08
681,083	94,08
681,338	92,08
681,594	79,08
681,849	89,08
682,104	76,08
682,36	88,08
682,615	95,08
682,87	85,08
683,125	91,08
683,381	84,08
683,636	78,08
683,891	100,08
684,146	114,08
684,401	100,08
684,657	117,08
684,912	91,08
685,167	87,08
685,422	88,08
685,677	99,08
685,932	110,08
686,188	95,08
686,443	109,08
686,698	86,08
686,953	97,08
687,208	95,08
687,463	108,08
687,718	99,08
687,973	100,08
688,228	112,08
688,483	97,08
688,739	96,08
688,994	110,08
689,249	95,08
689,504	103,08
689,759	100,08
690,014	94,08
690,269	92,08
690,524	99,08
690,779	120,08
691,034	99,08
691,289	112,08
691,544	104,08
691,798	123,08
692,053	104,08
692,308	109,08
692,563	116,08
692,818	107,08
693,073	111,08
693,328	110,08
693,583	87,08
693,838	106,08
694,093	114,08
694,347	97,08
694,602	123,08
694,857	99,08
695,112	91,08
695,367	83,08
695,622	101,08
695,876	91,08
696,131	119,08
696,386	110,08
696,641	105,08
696,896	109,08
697,15	95,08
697,405	98,08
697,66	99,08
697,915	100,08
698,169	108,08
698,424	97,08
698,679	106,08
698,933	116,08
699,188	106,08
699,443	102,08
699,698	95,08
699,952	90,08
700,207	96,08
700,461	123,08
700,716	103,08
700,971	96,08
701,225	101,08
701,48	106,08
701,735	104,08
701,989	95,08
702,244	94,08
702,498	112,08
702,753	80,08
703,007	103,08
703,262	100,08
703,517	104,08
703,771	101,08
704,026	99,08
704,28	100,08
704,535	107,08
704,789	98,08
705,044	92,08
705,298	82,08
705,553	84,08
705,807	99,08
706,062	94,08
706,316	106,08
706,57	92,08
706,825	83,08
707,079	88,08
707,334	90,08
707,588	100,08
707,842	95,08
708,097	80,08
708,351	75,08
708,606	86,08
708,86	97,08
709,114	90,08
709,369	91,08
709,623	94,08
709,877	79,08
710,132	82,08
710,386	92,08
710,64	78,08
710,895	87,08
711,149	92,08
711,403	77,08
711,657	81,08
711,912	64,08
712,166	72,08
712,42	64,08
712,674	77,08
712,928	74,08
713,183	66,08
713,437	72,08
713,691	74,08
713,945	79,08
714,199	88,08
714,454	92,08
714,708	66,08
714,962	71,08
715,216	68,08
715,47	62,08
715,724	78,08
715,978	66,08
716,233	73,08
716,487	73,08
716,741	76,08
716,995	75,08
717,249	67,08
717,503	62,08
717,757	72,08
718,011	70,08
718,265	74,08
718,519	66,08
718,773	68,08
719,027	65,08
719,281	61,08
719,535	70,08
719,789	64,08
720,043	66,08
720,297	67,08
720,551	74,08
720,805	76,08
721,059	60,08
721,313	54,08
721,567	50,08
721,821	56,08
722,074	59,08
722,328	54,08
722,582	56,08
722,836	62,08
723,09	49,08
723,344	44,08
723,598	48,08
723,851	59,08
724,105	54,08
724,359	59,08
724,613	52,08
724,867	63,08
725,121	65,08
725,374	63,08
725,628	62,08
725,882	51,08
726,136	52,08
726,389	69,08
726,643	55,08
726,897	58,08
727,151	47,08
727,404	57,08
727,658	51,08
727,912	50,08
728,165	43,08
728,419	46,08
728,673	49,08
728,926	52,08
729,18	45,08
729,434	43,08
729,687	39,08
729,941	19,08
730,195	52,08
730,448	50,08
730,702	37,08
730,955	49,08
731,209	50,08
731,462	46,08
731,716	45,08
731,97	49,08
732,223	52,08
732,477	47,08
732,73	45,08
732,984	41,08
733,237	40,08
733,491	52,08
733,744	27,08
733,998	49,08
734,251	41,08
734,505	43,08
734,758	28,08
735,012	47,08
735,265	36,08
735,518	47,08
735,772	28,08
736,025	27,08
736,279	35,08
736,532	31,08
736,785	41,08
737,039	46,08
737,292	32,08
737,546	40,08
737,799	44,08
738,052	40,08
738,306	26,08
738,559	39,08
738,812	44,08
739,066	41,08
739,319	41,08
739,572	47,08
739,825	35,08
740,079	44,08
740,332	36,08
740,585	45,08
740,838	46,08
741,092	40,08
741,345	31,08
741,598	44,08
741,851	25,08
742,104	25,08
742,358	29,08
742,611	42,08
742,864	36,08
743,117	43,08
743,37	43,08
743,623	35,08
743,877	33,08
744,13	41,08
744,383	23,08
744,636	17,08
744,889	27,08
745,142	18,08
745,395	42,08
745,648	33,08
745,901	27,08
746,154	31,08
746,408	33,08
746,661	33,08
746,914	36,08
747,167	37,08
747,42	28,08
747,673	24,08
747,926	37,08
748,179	31,08
748,432	27,08
748,685	21,08
748,938	36,08
749,19	33,08
749,443	20,08
749,696	33,08
749,949	38,08
750,202	25,08
750,455	30,08
750,708	23,08
750,961	27,08
751,214	17,08
751,467	25,08
751,719	38,08
751,972	28,08
752,225	39,08
752,478	17,08
752,731	23,08
752,984	9,08
753,236	27,08
753,489	28,08
753,742	20,08
753,995	27,08
754,248	18,08
754,5	20,08
754,753	23,08
755,006	21,08
755,259	25,08
755,511	32,08
755,764	11,08
756,017	15,08
756,269	39,08
756,522	18,08
756,775	20,08
757,027	10,08
757,28	18,08
757,533	27,08
757,785	24,08
758,038	24,08
758,291	19,08
758,543	17,08
758,796	26,08
759,049	25,08
759,301	19,08
759,554	13,08
759,806	36,08
760,059	18,08
760,311	23,08
760,564	18,08
760,817	22,08
761,069	11,08
761,322	6,08
761,574	17,08
761,827	22,08
762,079	23,08
762,332	19,08
762,584	15,08
762,837	25,08
763,089	11,08
763,341	14,08
763,594	14,08
763,846	15,08
764,099	15,08
764,351	19,08
764,604	15,08
764,856	18,08
765,108	5,08
765,361	13,08
765,613	15,08
765,865	17,08
766,118	20,08
766,37	3,08
766,623	10,08
766,875	24,08
767,127	21,08
767,379	17,08
767,632	22,08
767,884	16,08
768,136	24,08
768,389	2,08
768,641	10,08
768,893	11,08
769,145	19,08
769,398	4,08
769,65	16,08
769,902	14,08
770,154	14,08
770,406	14,08
770,659	20,08
770,911	24,08
771,163	13,08
771,415	16,08
771,667	11,08
771,919	19,08
772,172	10,08
772,424	13,08
772,676	22,08
772,928	19,08
773,18	16,08
773,432	36,08
773,684	14,08
773,936	19,08
774,188	16,08
774,44	9,08
774,693	15,08
774,945	22,08
775,197	19,08
775,449	9,08
775,701	13,08
775,953	16,08
776,205	24,08
776,457	19,08
776,709	23,08
776,961	20,08
777,213	-0,92
777,464	5,08
777,716	5,08
777,968	12,08
778,22	9,08
778,472	6,08
778,724	4,08
778,976	15,08
779,228	19,08
779,48	11,08
779,732	16,08
779,984	13,08
780,235	11,08
780,487	14,08
780,739	24,08
780,991	17,08
781,243	10,08
781,494	10,08
781,746	11,08
781,998	-3,92
782,25	11,08
782,502	21,08
782,753	23,08
783,005	11,08
783,257	16,08
783,509	0,08
783,76	7,08
784,012	8,08
784,264	7,08
784,515	12,08
784,767	19,08
785,019	1,08
785,271	14,08
785,522	9,08
785,774	7,08
786,026	27,08
786,277	11,08
786,529	16,08
786,78	11,08
787,032	28,08
787,284	17,08
787,535	-3,92
787,787	5,08
788,038	3,08
788,29	13,08
788,541	15,08
788,793	16,08
789,045	9,08
789,296	31,08
789,548	12,08
789,799	22,08
790,051	10,08
790,302	5,08
790,554	22,08
790,805	17,08
791,057	6,08
791,308	7,08
791,559	6,08
791,811	18,08
792,062	7,08
792,314	16,08
792,565	6,08
792,817	3,08
793,068	12,08
793,319	11,08
793,571	25,08
793,822	15,08
794,073	20,08
794,325	15,08
794,576	10,08
794,827	17,08
795,079	10,08
795,33	27,08
795,581	-5,92
795,833	12,08
796,084	15,08
796,335	8,08
796,587	4,08
796,838	17,08
797,089	18,08
797,34	10,08
797,592	6,08
797,843	-0,92
798,094	6,08
798,345	-0,92
798,596	22,08
798,848	17,08
799,099	17,08
799,35	15,08
799,601	19,08
799,852	0,08
800,103	9,08
800,355	9,08
800,606	18,08
800,857	19,08
801,108	20,08
801,359	4,08
801,61	0,08
801,861	4,08
802,112	-1,92
802,363	11,08
802,614	11,08
802,865	6,08
803,116	16,08
803,367	7,08
803,618	11,08
803,869	14,08
804,12	22,08
804,371	22,08
804,622	13,08
804,873	-2,92
805,124	12,08
805,375	18,08
805,626	11,08
805,877	8,08
806,128	13,08
806,379	12,08
806,63	2,08
806,881	14,08
807,132	16,08
807,383	3,08
807,634	1,08
807,884	20,08
808,135	7,08
808,386	5,08
808,637	-0,92
808,888	9,08
809,139	20,08
809,389	10,08
809,64	-2,92
809,891	15,08
810,142	5,08
810,393	0,08
810,643	-2,92
810,894	17,08
811,145	9,08
811,396	12,08
811,646	8,08
811,897	8,08
812,148	23,08
812,398	11,08
812,649	11,08
812,9	20,08
813,151	13,08
813,401	-0,92
813,652	6,08
813,902	3,08
814,153	14,08
814,404	11,08
814,654	7,08
814,905	3,08
815,156	8,08
815,406	9,08
815,657	10,08
815,907	7,08
816,158	5,08
816,408	4,08
816,659	7,08
816,91	-3,92
817,16	8,08
817,411	14,08
817,661	7,08
817,912	9,08
818,162	10,08
818,413	6,08
818,663	26,08
818,914	-2,92
819,164	3,08
819,414	11,08
819,665	12,08
819,915	8,08
820,166	10,08
820,416	7,08
820,667	15,08
820,917	2,08
821,167	4,08
821,418	7,08
821,668	16,08
821,918	26,08
822,169	5,08
822,419	10,08
822,67	6,08
822,92	6,08
823,17	3,08
823,42	-1,92
823,671	6,08
823,921	-0,92
824,171	14,08
824,422	6,08
824,672	8,08
824,922	8,08
825,172	-0,92
825,423	-3,92
825,673	9,08
825,923	-4,92
826,173	8,08
826,423	-1,92
826,674	9,08
826,924	0,08
827,174	2,08
827,424	12,08
827,674	9,08
827,924	7,08
828,175	10,08
828,425	-1,92
828,675	12,08
828,925	-7,92
829,175	6,08
829,425	-5,92
829,675	4,08
829,925	25,08
830,175	14,08
830,425	11,08
830,675	16,08
830,925	7,08
831,175	9,08
831,425	2,08
831,676	10,08
831,926	20,08
832,175	8,08
832,425	5,08
832,675	18,08
832,925	-2,92
833,175	6,08
833,425	10,08
833,675	6,08
833,925	3,08
834,175	10,08
834,425	-1,92
834,675	11,08
834,925	14,08
835,175	17,08
835,425	-1,92
835,674	10,08
835,924	1,08
836,174	0,08
836,424	4,08
836,674	11,08
836,924	8,08
837,173	-3,92
837,423	12,08
837,673	14,08
837,923	-0,92
838,173	-2,92
838,422	12,08
838,672	12,08
838,922	10,08
839,172	4,08
839,421	6,08
839,671	10,08
839,921	11,08
840,17	4,08
840,42	2,08
840,67	10,08
840,919	-3,92
841,169	10,08
841,419	6,08
841,668	5,08
841,918	7,08
842,168	1,08
842,417	7,08
842,667	5,08
842,916	4,08
843,166	9,08
843,416	0,08
843,665	4,08
843,915	13,08
844,164	1,08
844,414	10,08
844,663	1,08
844,913	5,08
845,162	12,08
845,412	3,08
845,662	-1,92
845,911	11,08
846,16	1,08
846,41	0,08
846,659	0,08
846,909	12,08
847,158	9,08
847,408	9,08
847,657	0,08
847,907	2,08
848,156	13,08
848,405	6,08
848,655	14,08
848,904	13,08
849,154	-0,92
849,403	14,08
849,652	14,08
849,902	24,08
850,151	6,08
850,4	-2,92
850,65	0,08
850,899	5,08
851,148	1,08
851,398	16,08
851,647	2,08
851,896	6,08
852,145	3,08
852,395	9,08
852,644	-4,92
852,893	-3,92
853,142	13,08
853,392	17,08
853,641	6,08
853,89	6,08
854,139	2,08
854,388	0,08
854,637	11,08
854,887	14,08
855,136	10,08
855,385	7,08
855,634	1,08
855,883	0,08
856,132	9,08
856,381	-2,92
856,631	6,08
856,88	-7,92
857,129	9,08
857,378	14,08
857,627	2,08
857,876	-7,92
858,125	3,08
858,374	3,08
858,623	4,08
858,872	8,08
859,121	-10,92
859,37	3,08
859,619	14,08
859,868	-1,92
860,117	13,08
860,366	12,08
860,615	14,08
860,864	9,08
861,113	2,08
861,362	0,08
861,611	11,08
861,86	0,08
862,108	0,08
862,357	11,08
862,606	16,08
862,855	-10,92
863,104	4,08
863,353	21,08
863,602	5,08
863,851	15,08
864,099	11,08
864,348	6,08
864,597	0,08
864,846	5,08
865,095	17,08
865,343	6,08
865,592	2,08
865,841	-8,92
866,09	-2,92
866,338	6,08
866,587	15,08
866,836	2,08
867,085	15,08
867,333	11,08
867,582	-2,92
867,831	4,08
868,079	15,08
868,328	4,08
868,577	-5,92
868,825	-0,92
869,074	0,08
869,323	5,08
869,571	4,08
869,82	8,08
870,068	10,08
870,317	15,08
870,566	0,08
870,814	-1,92
871,063	6,08
871,311	10,08
871,56	-4,92
871,808	0,08
872,057	3,08
872,306	8,08
872,554	10,08
872,803	5,08
873,051	10,08
873,3	9,08
873,548	5,08
873,797	2,08
874,045	4,08
874,293	13,08
874,542	8,08
874,79	4,08
875,039	10,08
875,287	10,08
875,536	9,08
875,784	9,08
876,032	16,08
876,281	6,08
876,529	7,08
876,777	-0,92
877,026	-0,92
877,274	7,08
877,523	0,08
877,771	4,08
878,019	1,08
878,267	2,08
878,516	3,08
878,764	-13,92
879,012	-4,92
879,261	-6,92
879,509	0,08
879,757	6,08
880,005	3,08
880,254	-5,92
880,502	-6,92
880,75	5,08
880,998	-0,92
881,246	-0,92
881,495	-0,92
881,743	13,08
881,991	3,08
882,239	0,08
882,487	8,08
882,735	-2,92
882,984	-11,92
883,232	4,08
883,48	-2,92
883,728	0,08
883,976	-0,92
884,224	15,08
884,472	3,08
884,72	14,08
884,968	16,08
885,216	10,08
885,464	7,08
885,712	4,08
885,96	7,08
886,208	-1,92
886,457	-2,92
886,704	4,08
886,952	15,08
887,2	4,08
887,448	-1,92
887,696	-8,92
887,944	5,08
888,192	10,08
888,44	4,08
888,688	-2,92
888,936	-7,92
889,184	-6,92
889,432	8,08
889,68	-0,92
889,928	-2,92
890,175	3,08
890,423	11,08
890,671	10,08
890,919	6,08
891,167	14,08
891,415	12,08
891,663	1,08
891,91	6,08
892,158	-0,92
892,406	-3,92
892,654	-1,92
892,901	4,08
893,149	0,08
893,397	13,08
893,645	2,08
893,892	13,08
894,14	9,08
894,388	-2,92
894,636	2,08
894,883	9,08
895,131	5,08
895,379	-1,92
895,626	-3,92
895,874	7,08
896,122	0,08
896,369	11,08
896,617	-0,92
896,864	6,08
897,112	-0,92
897,36	-9,92
897,607	-3,92
897,855	2,08
898,102	-5,92
898,35	4,08
898,598	4,08
898,845	-4,92
899,093	-5,92
899,34	1,08
899,588	-3,92
899,835	-10,92
900,083	6,08
900,33	-10,92
900,578	-4,92
900,825	2,08
901,073	5,08
901,32	-0,92
901,568	13,08
901,815	8,08
902,062	3,08
902,31	2,08
902,557	17,08
902,805	6,08
903,052	-3,92
903,299	3,08
903,547	-2,92
903,794	1,08
904,042	12,08
904,289	0,08
904,536	-4,92
904,784	-3,92
905,031	-1,92
905,278	11,08
905,525	1,08
905,773	-9,92
906,02	6,08
906,267	-5,92
906,515	10,08
906,762	5,08
907,009	2,08
907,256	-2,92
907,504	-6,92
907,751	2,08
907,998	-5,92
908,245	4,08
908,492	-5,92
908,74	-1,92
908,987	0,08
909,234	-7,92
909,481	1,08
909,728	-1,92
909,975	-1,92
910,222	-2,92
910,47	-3,92
910,717	4,08
910,964	-8,92
911,211	-1,92
911,458	-4,92
911,705	7,08
911,952	-6,92
912,199	1,08
912,446	-3,92
912,693	-13,92
912,94	-3,92
913,187	4,08
913,434	2,08
913,681	4,08
913,928	4,08
914,175	-4,92
914,422	0,08
914,669	1,08
914,916	-1,92
915,163	7,08
915,41	-0,92
915,657	-13,92
915,904	2,08
916,151	-3,92
916,398	4,08
916,644	10,08
916,891	-0,92
917,138	7,08
917,385	16,08
917,632	-0,92
917,879	-3,92
918,126	2,08
918,372	4,08
918,619	14,08
918,866	-11,92
919,113	0,08
919,36	5,08
919,606	18,08
919,853	4,08
920,1	7,08
920,347	16,08
920,593	5,08
920,84	-0,92
921,087	4,08
921,334	-2,92
921,58	16,08
921,827	-0,92
922,074	15,08
922,32	5,08
922,567	4,08
922,814	3,08
923,06	7,08
923,307	2,08
923,554	0,08
923,8	-1,92
924,047	10,08
924,293	7,08
924,54	1,08
924,787	4,08
925,033	-5,92
925,28	5,08
925,526	6,08
925,773	-5,92
926,019	-11,92
926,266	-3,92
926,512	-3,92
926,759	0,08
927,005	1,08
927,252	8,08
927,498	2,08
927,745	-4,92
927,991	-7,92
928,238	10,08
928,484	-11,92
928,731	-4,92
928,977	-6,92
929,223	-10,92
929,47	2,08
929,716	-6,92
929,963	3,08
930,209	-3,92
930,455	1,08
930,702	17,08
930,948	2,08
931,194	-3,92
931,441	0,08
931,687	5,08
931,933	-5,92
932,18	-1,92
932,426	6,08
932,672	-2,92
932,919	-9,92
933,165	-0,92
933,411	3,08
933,657	4,08
933,904	3,08
934,15	-4,92
934,396	-10,92
934,642	-1,92
934,889	-3,92
935,135	1,08
935,381	-3,92
935,627	-2,92
935,873	-7,92
936,119	-10,92
936,366	-0,92
936,612	7,08
936,858	-2,92
937,104	2,08
937,35	8,08
937,596	0,08
937,842	-4,92
938,088	-1,92
938,334	0,08
938,58	-1,92
938,827	3,08
939,073	7,08
939,319	5,08
939,565	-3,92
939,811	3,08
940,057	4,08
940,303	5,08
940,549	-6,92
940,795	-0,92
941,041	-5,92
941,287	7,08
941,533	4,08
941,778	-3,92
942,024	11,08
942,27	17,08
942,516	-4,92
942,762	1,08
943,008	-4,92
943,254	-6,92
943,5	9,08
943,746	-10,92
943,992	-5,92
944,237	0,08
944,483	-4,92
944,729	9,08
944,975	5,08
945,221	4,08
945,467	8,08
945,712	-6,92
945,958	8,08
946,204	2,08
946,45	-5,92
946,695	1,08
946,941	6,08
947,187	-1,92
947,433	5,08
947,678	1,08
947,924	-9,92
948,17	2,08
948,415	2,08
948,661	-0,92
948,907	12,08
949,153	13,08
949,398	-3,92
949,644	18,08
949,889	6,08
950,135	3,08
950,381	-1,92
950,626	1,08
950,872	0,08
951,118	4,08
951,363	-7,92
951,609	7,08
951,854	17,08
952,1	11,08
952,345	-12,92
952,591	-12,92
952,836	-10,92
953,082	-1,92
953,327	3,08
953,573	6,08
953,818	-5,92
954,064	-2,92
954,309	-3,92
954,555	1,08
954,8	0,08
955,046	-0,92
955,291	14,08
955,537	-0,92
955,782	-3,92
956,027	4,08
956,273	0,08
956,518	2,08
956,764	-4,92
957,009	4,08
957,254	-12,92
957,5	6,08
957,745	6,08
957,99	-2,92
958,236	-2,92
958,481	-9,92
958,726	-8,92
958,972	-4,92
959,217	-5,92
959,462	-5,92
959,707	6,08
959,953	2,08
960,198	8,08
960,443	0,08
960,688	-6,92
960,934	1,08
961,179	4,08
961,424	-0,92
961,669	9,08
961,914	-5,92
962,16	0,08
962,405	-2,92
962,65	-0,92
962,895	-2,92
963,14	-9,92
963,385	23,08
963,63	9,08
963,876	-5,92
964,121	6,08
964,366	-1,92
964,611	-3,92
964,856	6,08
965,101	-5,92
965,346	1,08
965,591	4,08
965,836	-4,92
966,081	-13,92
966,326	2,08
966,571	2,08
966,816	10,08
967,061	9,08
967,306	5,08
967,551	10,08
967,796	10,08
968,041	10,08
968,286	9,08
968,531	2,08
968,776	4,08
969,021	6,08
969,266	2,08
969,511	-8,92
969,755	12,08
970	5,08
970,245	-0,92
970,49	-6,92
970,735	5,08
970,98	-8,92
971,225	-0,92
971,469	2,08
971,714	16,08
971,959	-5,92
972,204	-1,92
972,449	7,08
972,693	2,08
972,938	13,08
973,183	4,08
973,428	-5,92
973,672	11,08
973,917	12,08
974,162	-6,92
974,407	5,08
974,651	-9,92
974,896	5,08
975,141	22,08
975,385	-4,92
975,63	2,08
975,875	8,08
976,119	24,08
976,364	3,08
976,608	13,08
976,853	4,08
977,098	-0,92
977,342	-6,92
977,587	2,08
977,831	-1,92
978,076	-2,92
978,321	-0,92
978,565	7,08
978,81	6,08
979,054	1,08
979,299	0,08
979,543	15,08
979,788	2,08
980,032	-1,92
980,277	1,08
980,521	16,08
980,766	1,08
981,01	8,08
981,255	1,08
981,499	6,08
981,743	-3,92
981,988	3,08
982,232	4,08
982,477	12,08
982,721	4,08
982,965	10,08
983,21	0,08
983,454	6,08
983,699	9,08
983,943	3,08
984,187	-2,92
984,432	10,08
984,676	2,08
984,92	3,08
985,165	-2,92
985,409	-2,92
985,653	-1,92
985,897	18,08
986,142	7,08
986,386	-2,92
986,63	1,08
986,874	2,08
987,119	1,08
987,363	-4,92
987,607	1,08
987,851	4,08
988,095	-1,92
988,34	1,08
988,584	2,08
988,828	-4,92
989,072	-9,92
989,316	-2,92
989,56	7,08
989,804	13,08
990,049	-0,92
990,293	3,08
990,537	6,08
990,781	5,08
991,025	1,08
991,269	-4,92
991,513	17,08
991,757	2,08
992,001	8,08
992,245	2,08
992,489	2,08
992,733	10,08
992,977	-2,92
993,221	2,08
993,465	0,08
993,709	15,08
993,953	-4,92
994,197	3,08
994,441	4,08
994,685	-3,92
994,929	2,08
995,173	-3,92
995,417	10,08
995,661	4,08
995,904	-5,92
996,148	3,08
996,392	1,08
996,636	-13,92
996,88	-0,92
997,124	0,08
997,368	6,08
997,611	2,08
997,855	6,08
998,099	-2,92
998,343	-1,92
998,587	12,08
998,83	2,08
999,074	12,08
999,318	8,08
999,562	-2,92
999,805	4,08
1000,049	6,08
1000,293	-2,92
1000,537	11,08
1000,78	2,08
1001,024	-3,92
1001,268	-9,92
1001,511	-4,92
1001,755	2,08
1001,999	-6,92
1002,242	1,08
1002,486	8,08
1002,73	1,08
1002,973	-2,92
1003,217	8,08
1003,46	11,08
1003,704	3,08
1003,948	7,08
1004,191	12,08
1004,435	2,08
1004,678	2,08
1004,922	-2,92
1005,165	1,08
1005,409	18,08
1005,652	10,08
1005,896	12,08
1006,139	3,08
1006,383	5,08
1006,626	3,08
1006,87	7,08
1007,113	5,08
1007,357	-2,92
1007,6	9,08
1007,844	10,08
1008,087	7,08
1008,33	-5,92
1008,574	-0,92
1008,817	2,08
1009,061	5,08
1009,304	7,08
1009,547	-7,92
1009,791	11,08
1010,034	2,08
1010,277	-11,92
1010,521	6,08
1010,764	-0,92
1011,007	7,08
1011,251	-5,92
1011,494	10,08
1011,737	12,08
1011,98	2,08
1012,224	9,08
1012,467	-2,92
1012,71	7,08
1012,953	-0,92
1013,197	3,08
1013,44	-1,92
1013,683	9,08
1013,926	11,08
1014,169	-0,92
1014,413	10,08
1014,656	-8,92
1014,899	5,08
1015,142	-5,92
1015,385	6,08
1015,628	2,08
1015,871	3,08
1016,115	-1,92
1016,358	11,08
1016,601	6,08
1016,844	3,08
1017,087	-6,92
1017,33	4,08
1017,573	11,08
1017,816	-3,92
1018,059	5,08
1018,302	4,08
1018,545	1,08
1018,788	14,08
1019,031	14,08
1019,274	6,08
1019,517	7,08
1019,76	2,08
1020,003	11,08
1020,246	5,08
1020,489	9,08
1020,732	9,08
1020,975	6,08
1021,218	9,08
1021,461	0,08
1021,703	-0,92
1021,946	-0,92
1022,189	1,08
1022,432	-4,92
1022,675	-10,92
1022,918	6,08
1023,161	2,08
1023,403	14,08
1023,646	-6,92
1023,889	1,08
1024,132	14,08
1024,375	-9,92
1024,617	8,08
1024,86	15,08
1025,103	2,08
1025,346	6,08
1025,588	3,08
1025,831	1,08
1026,074	-2,92
1026,317	14,08
1026,559	2,08
1026,802	4,08
1027,045	3,08
1027,287	-1,92
1027,53	6,08
1027,773	11,08
1028,015	0,08
1028,258	3,08
1028,501	3,08
1028,743	6,08
1028,986	2,08
1029,228	-8,92
1029,471	-4,92
1029,714	0,08
1029,956	6,08
1030,199	4,08
1030,441	2,08
1030,684	-10,92
1030,926	-5,92
1031,169	7,08
1031,411	1,08
1031,654	6,08
1031,896	7,08
1032,139	2,08
1032,381	14,08
1032,624	15,08
1032,866	3,08
1033,109	1,08
1033,351	8,08
1033,594	15,08
1033,836	8,08
1034,079	5,08
1034,321	9,08
1034,563	4,08
1034,806	-0,92
1035,048	4,08
1035,29	5,08
1035,533	10,08
1035,775	6,08
1036,018	-0,92
1036,26	4,08
1036,502	6,08
1036,744	16,08
1036,987	-1,92
1037,229	6,08
1037,471	5,08
1037,714	4,08
1037,956	10,08
1038,198	1,08
1038,44	-0,92
1038,683	3,08
1038,925	6,08
1039,167	8,08
1039,409	6,08
1039,651	0,08
1039,894	0,08
1040,136	6,08
1040,378	4,08
1040,62	9,08
1040,862	10,08
1041,104	5,08
1041,347	14,08
1041,589	16,08
1041,831	4,08
1042,073	6,08
1042,315	2,08
1042,557	-0,92
1042,799	6,08
1043,041	7,08
1043,283	11,08
1043,525	2,08
1043,767	16,08
1044,009	2,08
1044,251	-2,92
1044,493	-2,92
1044,735	-8,92
1044,977	4,08
1045,219	0,08
1045,461	4,08
1045,703	4,08
1045,945	7,08
1046,187	21,08
1046,429	-1,92
1046,671	9,08
1046,913	4,08
1047,155	-2,92
1047,397	-1,92
1047,639	2,08
1047,881	2,08
1048,122	5,08
1048,364	-4,92
1048,606	-12,92
1048,848	3,08
1049,09	2,08
1049,332	16,08
1049,573	26,08
1049,815	13,08
1050,057	14,08
1050,299	10,08
1050,541	10,08
1050,782	2,08
1051,024	-3,92
1051,266	-14,92
1051,508	11,08
1051,749	-5,92
1051,991	0,08
1052,233	10,08
1052,474	-1,92
1052,716	5,08
1052,958	18,08
1053,199	1,08
1053,441	-1,92
1053,683	10,08
1053,924	1,08
1054,166	-3,92
1054,408	9,08
1054,649	15,08
1054,891	16,08
1055,132	2,08
1055,374	10,08
1055,616	11,08
1055,857	1,08
1056,099	-1,92
1056,34	-3,92
1056,582	6,08
1056,823	18,08
1057,065	12,08
1057,306	-0,92
1057,548	10,08
1057,789	16,08
1058,031	-4,92
1058,272	17,08
1058,514	-5,92
1058,755	2,08
1058,997	11,08
1059,238	11,08
1059,479	4,08
1059,721	1,08
1059,962	4,08
1060,204	6,08
1060,445	6,08
1060,686	20,08
1060,928	2,08
1061,169	11,08
1061,41	-0,92
1061,652	-0,92
1061,893	8,08
1062,134	12,08
1062,376	14,08
1062,617	-8,92
1062,858	3,08
1063,1	2,08
1063,341	4,08
1063,582	5,08
1063,823	10,08
1064,065	4,08
1064,306	1,08
1064,547	4,08
1064,788	2,08
1065,029	11,08
1065,271	9,08
1065,512	9,08
1065,753	15,08
1065,994	7,08
1066,235	10,08
1066,476	25,08
1066,718	10,08
1066,959	1,08
1067,2	4,08
1067,441	6,08
1067,682	2,08
1067,923	11,08
1068,164	1,08
1068,405	12,08
1068,646	9,08
1068,887	2,08
1069,128	3,08
1069,369	20,08
1069,61	8,08
1069,851	6,08
1070,092	9,08
1070,333	8,08
1070,574	14,08
1070,815	-0,92
1071,056	17,08
1071,297	0,08
1071,538	3,08
1071,779	15,08
1072,02	2,08
1072,261	8,08
1072,502	13,08
1072,743	7,08
1072,984	9,08
1073,225	-1,92
1073,466	12,08
1073,706	-1,92
1073,947	7,08
1074,188	9,08
1074,429	12,08
1074,67	9,08
1074,911	3,08
1075,151	-3,92
1075,392	-5,92
1075,633	4,08
1075,874	16,08
1076,114	7,08
1076,355	16,08
1076,596	-0,92
1076,837	8,08
1077,077	5,08
1077,318	0,08
1077,559	12,08
1077,8	-6,92
1078,04	-7,92
1078,281	-2,92
1078,522	5,08
1078,762	13,08
1079,003	13,08
1079,244	9,08
1079,484	16,08
1079,725	0,08
1079,965	-5,92
1080,206	2,08
1080,447	-0,92
1080,687	-3,92
1080,928	7,08
1081,168	12,08
1081,409	10,08
1081,649	3,08
1081,89	4,08
1082,131	10,08
1082,371	5,08
1082,612	16,08
1082,852	13,08
1083,093	14,08
1083,333	11,08
1083,573	9,08
1083,814	1,08
1084,054	2,08
1084,295	3,08
1084,535	-3,92
1084,776	13,08
1085,016	5,08
1085,257	2,08
1085,497	-0,92
1085,737	7,08
1085,978	12,08
1086,218	-5,92
1086,458	-0,92
1086,699	-0,92
1086,939	4,08
1087,179	-2,92
1087,42	0,08
1087,66	8,08
1087,9	4,08
1088,141	-1,92
1088,381	-1,92
1088,621	8,08
1088,861	2,08
1089,102	4,08
1089,342	6,08
1089,582	11,08
1089,822	12,08
1090,063	-0,92
1090,303	8,08
1090,543	-3,92
1090,783	14,08
1091,023	1,08
1091,263	-4,92
1091,504	1,08
1091,744	-2,92
1091,984	-7,92
1092,224	12,08
1092,464	11,08
1092,704	11,08
1092,944	3,08
1093,184	-1,92
1093,425	11,08
1093,665	-0,92
1093,905	-3,92
1094,145	2,08
1094,385	3,08
1094,625	-4,92
1094,865	10,08
1095,105	-1,92
1095,345	-5,92
1095,585	3,08
1095,825	14,08
1096,065	24,08
1096,305	6,08
1096,545	5,08
1096,785	4,08
1097,025	-0,92
1097,265	-1,92
1097,504	4,08
1097,744	8,08
1097,984	-5,92
1098,224	-9,92
1098,464	-7,92
1098,704	-8,92
1098,944	9,08
1099,184	-3,92
1099,423	-1,92
1099,663	7,08
1099,903	10,08
1100,143	-8,92
1100,383	-3,92
1100,622	-0,92
1100,862	-3,92
1101,102	-9,92
1101,342	0,08
1101,582	3,08
1101,821	2,08
1102,061	19,08
1102,301	-0,92
1102,54	2,08
1102,78	1,08
1103,02	13,08
1103,26	3,08
1103,499	8,08
1103,739	8,08
1103,979	-2,92
1104,218	12,08
1104,458	2,08
1104,697	1,08
1104,937	1,08
1105,177	-7,92
1105,416	0,08
1105,656	2,08
1105,896	3,08
1106,135	-4,92
1106,375	2,08
1106,614	3,08
1106,854	-3,92
1107,093	5,08
1107,333	10,08
1107,572	-0,92
1107,812	5,08
1108,051	1,08
1108,291	3,08
1108,53	7,08
1108,77	4,08
1109,009	-0,92
1109,249	-1,92
1109,488	-1,92
1109,728	3,08
1109,967	10,08
1110,206	4,08
1110,446	18,08
1110,685	0,08
1110,925	1,08
1111,164	12,08
1111,403	-4,92
1111,643	8,08
1111,882	15,08
1112,121	-8,92
1112,361	2,08
1112,6	8,08
1112,839	-1,92
1113,079	-3,92
1113,318	-4,92
1113,557	-8,92
1113,796	4,08
1114,036	0,08
1114,275	0,08
1114,514	-6,92
1114,753	-3,92
1114,993	13,08
1115,232	11,08
1115,471	4,08
1115,71	6,08
1115,949	4,08
1116,188	0,08
1116,428	-1,92
1116,667	1,08
1116,906	7,08
1117,145	-1,92
1117,384	0,08
1117,623	-2,92
1117,862	0,08
1118,101	11,08
1118,341	6,08
1118,58	7,08
1118,819	7,08
1119,058	1,08
1119,297	-2,92
1119,536	4,08
1119,775	0,08
1120,014	3,08
1120,253	1,08
1120,492	9,08
1120,731	9,08
1120,97	3,08
1121,209	-2,92
1121,448	3,08
1121,687	10,08
1121,926	-1,92
1122,165	-0,92
1122,404	-9,92
1122,642	-3,92
1122,881	0,08
1123,12	-11,92
1123,359	-8,92
1123,598	2,08
1123,837	20,08
1124,076	12,08
1124,315	-4,92
1124,553	-7,92
1124,792	-3,92
1125,031	7,08
1125,27	-5,92
1125,509	4,08
1125,747	3,08
1125,986	8,08
1126,225	16,08
