Data from HR4C34221__11__15-23-53-300.txt Node

Date: Fri Apr 07 15:23:53 MSK 2023
User: 123
Spectrometer: HR4C3422
Trigger mode: 4
Integration Time (sec): 1,020000E-1
Scans to average: 1
Electric dark correction enabled: true
Nonlinearity correction enabled: false
Boxcar width: 0
XAxis mode: Wavelengths
Number of Pixels in Spectrum: 3648
>>>>>Begin Spectral Data<<<<<
195,326	-75,62
195,597	-75,62
195,868	-75,62
196,139	-51,62
196,409	-8,62
196,68	-1,62
196,951	0,38
197,221	0,38
197,492	0,38
197,762	-0,62
198,033	-0,62
198,304	8,38
198,574	-6,62
198,845	1,38
199,116	4,38
199,386	-4,62
199,657	-20,62
199,927	19,38
200,198	-8,62
200,468	-10,62
200,739	-7,62
201,009	-3,62
201,28	3,38
201,551	-7,62
201,821	-7,62
202,092	6,38
202,362	2,38
202,633	-6,62
202,903	-6,62
203,174	3,38
203,444	-7,62
203,714	-12,62
203,985	-6,62
204,255	-4,62
204,526	59,38
204,796	1,38
205,067	6,38
205,337	0,38
205,607	-4,62
205,878	45,38
206,148	11,38
206,419	-15,62
206,689	-14,62
206,959	-14,62
207,23	-7,62
207,5	20,38
207,77	25,38
208,041	-3,62
208,311	12,38
208,581	3,38
208,852	9,38
209,122	-5,62
209,392	-23,62
209,663	-13,62
209,933	-9,62
210,203	3,38
210,473	-15,62
210,744	-1,62
211,014	16,38
211,284	-1,62
211,554	1,38
211,825	0,38
212,095	-10,62
212,365	-18,62
212,635	13,38
212,905	-4,62
213,176	-2,62
213,446	20,38
213,716	-6,62
213,986	-1,62
214,256	-0,62
214,526	16,38
214,797	6,38
215,067	0,38
215,337	2,38
215,607	-8,62
215,877	-18,62
216,147	-5,62
216,417	4,38
216,687	3,38
216,957	5,38
217,227	2,38
217,497	-11,62
217,767	-1,62
218,038	17,38
218,308	11,38
218,578	-2,62
218,848	-8,62
219,118	-9,62
219,388	-7,62
219,658	-21,62
219,928	-9,62
220,198	-5,62
220,468	9,38
220,737	-8,62
221,007	-1,62
221,277	-10,62
221,547	-6,62
221,817	-4,62
222,087	-10,62
222,357	5,38
222,627	-16,62
222,897	6,38
223,167	-13,62
223,437	1,38
223,707	19,38
223,976	3,38
224,246	3,38
224,516	-18,62
224,786	-3,62
225,056	2,38
225,326	-14,62
225,595	1,38
225,865	7,38
226,135	-7,62
226,405	-9,62
226,675	-8,62
226,944	8,38
227,214	0,38
227,484	-3,62
227,754	-16,62
228,023	-3,62
228,293	-14,62
228,563	-14,62
228,833	-5,62
229,102	1,38
229,372	0,38
229,642	-0,62
229,911	-6,62
230,181	-12,62
230,451	-9,62
230,72	-0,62
230,99	-5,62
231,26	7,38
231,529	-4,62
231,799	16,38
232,069	2,38
232,338	9,38
232,608	12,38
232,877	4,38
233,147	-5,62
233,417	5,38
233,686	8,38
233,956	2,38
234,225	-18,62
234,495	-17,62
234,764	4,38
235,034	-19,62
235,304	-25,62
235,573	82,38
235,843	1,38
236,112	-5,62
236,382	-14,62
236,651	-7,62
236,921	7,38
237,19	-7,62
237,46	-16,62
237,729	-11,62
237,998	-11,62
238,268	-10,62
238,537	16,38
238,807	15,38
239,076	-13,62
239,346	0,38
239,615	-1,62
239,884	-18,62
240,154	-0,62
240,423	-0,62
240,693	-9,62
240,962	0,38
241,231	8,38
241,501	-3,62
241,77	-11,62
242,039	-10,62
242,309	-4,62
242,578	-7,62
242,847	-12,62
243,116	-3,62
243,386	-3,62
243,655	-10,62
243,924	-5,62
244,194	-10,62
244,463	-5,62
244,732	-6,62
245,001	-6,62
245,271	77,38
245,54	5,38
245,809	-8,62
246,078	-2,62
246,347	2,38
246,617	-30,62
246,886	-15,62
247,155	-2,62
247,424	9,38
247,693	-4,62
247,963	-18,62
248,232	-1,62
248,501	0,38
248,77	-6,62
249,039	1,38
249,308	-1,62
249,577	-6,62
249,846	-23,62
250,115	-4,62
250,385	-10,62
250,654	-2,62
250,923	7,38
251,192	4,38
251,461	2,38
251,73	-1,62
251,999	-14,62
252,268	-4,62
252,537	8,38
252,806	-10,62
253,075	9,38
253,344	-9,62
253,613	17,38
253,882	-12,62
254,151	-11,62
254,42	-7,62
254,689	-11,62
254,958	-16,62
255,227	-22,62
255,496	-10,62
255,765	-2,62
256,033	-12,62
256,302	-2,62
256,571	10,38
256,84	-3,62
257,109	-21,62
257,378	-10,62
257,647	-12,62
257,916	-14,62
258,184	-11,62
258,453	-19,62
258,722	-4,62
258,991	-22,62
259,26	5,38
259,529	-14,62
259,797	-13,62
260,066	-5,62
260,335	14,38
260,604	5,38
260,873	0,38
261,141	-17,62
261,41	-24,62
261,679	-16,62
261,948	1,38
262,216	-13,62
262,485	4,38
262,754	-15,62
263,022	2,38
263,291	15,38
263,56	-8,62
263,829	-7,62
264,097	-8,62
264,366	9,38
264,635	-5,62
264,903	-12,62
265,172	-6,62
265,44	-1,62
265,709	1,38
265,978	-1,62
266,246	2,38
266,515	-1,62
266,784	-7,62
267,052	-4,62
267,321	-10,62
267,589	115,38
267,858	-14,62
268,126	-24,62
268,395	-1,62
268,663	15,38
268,932	10,38
269,201	-8,62
269,469	-4,62
269,738	4,38
270,006	-6,62
270,275	-3,62
270,543	-23,62
270,811	-1,62
271,08	-5,62
271,348	16,38
271,617	-2,62
271,885	-7,62
272,154	-22,62
272,422	-2,62
272,691	-14,62
272,959	14,38
273,227	-2,62
273,496	7,38
273,764	-7,62
274,033	5,38
274,301	-16,62
274,569	-23,62
274,838	-12,62
275,106	-18,62
275,374	5,38
275,643	2,38
275,911	-17,62
276,179	-1,62
276,448	12,38
276,716	6,38
276,984	-26,62
277,252	2,38
277,521	-7,62
277,789	-10,62
278,057	-11,62
278,325	-5,62
278,594	5,38
278,862	8,38
279,13	-13,62
279,398	0,38
279,667	3,38
279,935	1,38
280,203	-14,62
280,471	12,38
280,739	-9,62
281,008	-15,62
281,276	-2,62
281,544	-1,62
281,812	-9,62
282,08	-12,62
282,348	3,38
282,616	-0,62
282,884	-24,62
283,153	-1,62
283,421	-0,62
283,689	13,38
283,957	-19,62
284,225	6,38
284,493	20,38
284,761	6,38
285,029	-10,62
285,297	-14,62
285,565	-18,62
285,833	-5,62
286,101	-12,62
286,369	-29,62
286,637	-6,62
286,905	-12,62
287,173	-11,62
287,441	-13,62
287,709	-3,62
287,977	3,38
288,245	-2,62
288,513	-5,62
288,781	-15,62
289,049	-10,62
289,317	-17,62
289,585	-17,62
289,853	12,38
290,12	5,38
290,388	-6,62
290,656	-10,62
290,924	-14,62
291,192	-13,62
291,46	-22,62
291,728	-7,62
291,996	-9,62
292,263	22,38
292,531	-0,62
292,799	-2,62
293,067	-21,62
293,335	4,38
293,602	-19,62
293,87	-6,62
294,138	-1,62
294,406	-2,62
294,673	-11,62
294,941	-14,62
295,209	-17,62
295,477	-1,62
295,744	2,38
296,012	-3,62
296,28	-4,62
296,548	-20,62
296,815	-20,62
297,083	-1,62
297,351	21,38
297,618	2,38
297,886	-2,62
298,154	4,38
298,421	9,38
298,689	-28,62
298,956	-5,62
299,224	-1,62
299,492	-8,62
299,759	-6,62
300,027	-7,62
300,294	-9,62
300,562	-25,62
300,83	-7,62
301,097	-17,62
301,365	-31,62
301,632	-18,62
301,9	-4,62
302,167	-10,62
302,435	-17,62
302,702	8,38
302,97	5,38
303,237	2,38
303,505	9,38
303,772	14,38
304,04	-11,62
304,307	-27,62
304,575	-16,62
304,842	-30,62
305,11	5,38
305,377	-9,62
305,645	1,38
305,912	-23,62
306,179	-18,62
306,447	-6,62
306,714	-14,62
306,982	-6,62
307,249	-0,62
307,516	-4,62
307,784	-5,62
308,051	-20,62
308,318	16,38
308,586	-11,62
308,853	-4,62
309,12	-19,62
309,388	-3,62
309,655	10,38
309,922	-2,62
310,19	-18,62
310,457	-11,62
310,724	-3,62
310,991	-11,62
311,259	-2,62
311,526	-12,62
311,793	-5,62
312,06	-9,62
312,328	16,38
312,595	0,38
312,862	-11,62
313,129	13,38
313,396	-11,62
313,664	-1,62
313,931	-5,62
314,198	-7,62
314,465	-19,62
314,732	-14,62
314,999	-6,62
315,266	2,38
315,534	1,38
315,801	0,38
316,068	-16,62
316,335	-7,62
316,602	-4,62
316,869	-0,62
317,136	9,38
317,403	0,38
317,67	6,38
317,937	9,38
318,204	-12,62
318,471	10,38
318,738	2,38
319,005	-0,62
319,272	-6,62
319,539	2,38
319,806	15,38
320,073	-3,62
320,34	-18,62
320,607	-10,62
320,874	1,38
321,141	-6,62
321,408	9,38
321,675	-4,62
321,942	17,38
322,209	3,38
322,476	-14,62
322,743	-1,62
323,01	-3,62
323,277	-25,62
323,544	12,38
323,81	-8,62
324,077	1,38
324,344	1,38
324,611	0,38
324,878	-2,62
325,145	-6,62
325,412	2,38
325,678	-13,62
325,945	-13,62
326,212	-9,62
326,479	-3,62
326,746	-14,62
327,012	1,38
327,279	-8,62
327,546	4,38
327,813	-6,62
328,079	2,38
328,346	-17,62
328,613	1,38
328,88	7,38
329,146	1,38
329,413	4,38
329,68	-7,62
329,946	-9,62
330,213	-16,62
330,48	-7,62
330,746	-12,62
331,013	-11,62
331,28	-9,62
331,546	14,38
331,813	-9,62
332,08	-16,62
332,346	-11,62
332,613	-15,62
332,879	-15,62
333,146	-0,62
333,413	0,38
333,679	-17,62
333,946	-18,62
334,212	-4,62
334,479	-4,62
334,745	-3,62
335,012	-6,62
335,278	-24,62
335,545	-4,62
335,811	-21,62
336,078	8,38
336,344	-6,62
336,611	2,38
336,877	0,38
337,144	-12,62
337,41	-19,62
337,677	16,38
337,943	8,38
338,21	-6,62
338,476	-10,62
338,742	10,38
339,009	-23,62
339,275	-24,62
339,542	-16,62
339,808	-8,62
340,074	-17,62
340,341	-19,62
340,607	6,38
340,873	-11,62
341,14	3,38
341,406	-7,62
341,672	-2,62
341,939	-12,62
342,205	0,38
342,471	-7,62
342,738	-13,62
343,004	-13,62
343,27	-12,62
343,537	7,38
343,803	-7,62
344,069	-20,62
344,335	-33,62
344,602	2,38
344,868	-10,62
345,134	-11,62
345,4	-1,62
345,666	-10,62
345,933	-12,62
346,199	-5,62
346,465	-3,62
346,731	-4,62
346,997	-13,62
347,263	-2,62
347,53	9,38
347,796	-23,62
348,062	-7,62
348,328	-1,62
348,594	-7,62
348,86	-6,62
349,126	-7,62
349,392	-13,62
349,659	9,38
349,925	-15,62
350,191	-0,62
350,457	-14,62
350,723	-1,62
350,989	-10,62
351,255	-0,62
351,521	1,38
351,787	-5,62
352,053	-14,62
352,319	2,38
352,585	2,38
352,851	-9,62
353,117	3,38
353,383	-0,62
353,649	-18,62
353,915	-16,62
354,181	20,38
354,447	11,38
354,713	-12,62
354,978	2,38
355,244	-10,62
355,51	-23,62
355,776	-14,62
356,042	4,38
356,308	3,38
356,574	0,38
356,84	-14,62
357,106	-15,62
357,371	-4,62
357,637	-0,62
357,903	-9,62
358,169	-16,62
358,435	-6,62
358,701	-20,62
358,966	-8,62
359,232	-3,62
359,498	-3,62
359,764	-0,62
360,029	-2,62
360,295	-9,62
360,561	-24,62
360,827	-18,62
361,092	-11,62
361,358	-12,62
361,624	-7,62
361,89	-22,62
362,155	-14,62
362,421	3,38
362,687	-4,62
362,952	2,38
363,218	-0,62
363,484	5,38
363,749	-3,62
364,015	8,38
364,281	3,38
364,546	0,38
364,812	-8,62
365,077	-11,62
365,343	-4,62
365,609	2,38
365,874	1,38
366,14	-1,62
366,405	1,38
366,671	-11,62
366,936	-6,62
367,202	-23,62
367,467	-2,62
367,733	-7,62
367,999	1,38
368,264	0,38
368,53	1,38
368,795	-2,62
369,061	6,38
369,326	-7,62
369,591	-19,62
369,857	-20,62
370,122	-24,62
370,388	-24,62
370,653	-8,62
370,919	-38,62
371,184	-22,62
371,45	3,38
371,715	-6,62
371,98	4,38
372,246	-10,62
372,511	2,38
372,776	-14,62
373,042	-6,62
373,307	-10,62
373,573	-17,62
373,838	-11,62
374,103	2,38
374,369	8,38
374,634	-19,62
374,899	-25,62
375,164	-13,62
375,43	2,38
375,695	10,38
375,96	-18,62
376,226	-2,62
376,491	-2,62
376,756	-0,62
377,021	-9,62
377,286	-14,62
377,552	-6,62
377,817	0,38
378,082	19,38
378,347	2,38
378,613	16,38
378,878	16,38
379,143	-4,62
379,408	5,38
379,673	-16,62
379,938	-5,62
380,203	-13,62
380,469	-0,62
380,734	16,38
380,999	-6,62
381,264	3,38
381,529	-8,62
381,794	-3,62
382,059	4,38
382,324	-9,62
382,589	-8,62
382,854	-13,62
383,119	4,38
383,385	-8,62
383,65	-22,62
383,915	-5,62
384,18	-11,62
384,445	-23,62
384,71	5,38
384,975	1,38
385,24	-1,62
385,505	-9,62
385,77	-9,62
386,034	-12,62
386,299	-5,62
386,564	-1,62
386,829	-1,62
387,094	10,38
387,359	-9,62
387,624	-3,62
387,889	0,38
388,154	-4,62
388,419	-0,62
388,684	-7,62
388,949	-6,62
389,213	-13,62
389,478	-25,62
389,743	-14,62
390,008	-0,62
390,273	16,38
390,538	-15,62
390,802	-8,62
391,067	0,38
391,332	-13,62
391,597	-3,62
391,862	-4,62
392,126	11,38
392,391	0,38
392,656	-8,62
392,921	-3,62
393,185	-22,62
393,45	-10,62
393,715	5,38
393,979	-9,62
394,244	-20,62
394,509	1,38
394,774	33,38
395,038	5,38
395,303	-4,62
395,568	1,38
395,832	-13,62
396,097	-5,62
396,361	-6,62
396,626	-11,62
396,891	2,38
397,155	-5,62
397,42	3,38
397,685	12,38
397,949	-13,62
398,214	-4,62
398,478	0,38
398,743	-9,62
399,007	10,38
399,272	10,38
399,536	-3,62
399,801	-0,62
400,066	-20,62
400,33	-15,62
400,595	-3,62
400,859	-12,62
401,124	-0,62
401,388	-3,62
401,652	-4,62
401,917	9,38
402,181	-23,62
402,446	-13,62
402,71	-9,62
402,975	-1,62
403,239	3,38
403,504	16,38
403,768	-17,62
404,032	-0,62
404,297	17,38
404,561	-5,62
404,826	8,38
405,09	3,38
405,354	-10,62
405,619	14,38
405,883	2,38
406,147	-6,62
406,412	-26,62
406,676	-6,62
406,94	6,38
407,205	1,38
407,469	10,38
407,733	8,38
407,997	-1,62
408,262	-0,62
408,526	-15,62
408,79	-4,62
409,054	-20,62
409,319	-12,62
409,583	1,38
409,847	-1,62
410,111	-14,62
410,375	8,38
410,64	1,38
410,904	2,38
411,168	-3,62
411,432	14,38
411,696	-10,62
411,96	-2,62
412,225	11,38
412,489	9,38
412,753	-11,62
413,017	-10,62
413,281	4,38
413,545	2,38
413,809	5,38
414,073	-10,62
414,337	-15,62
414,602	-2,62
414,866	-15,62
415,13	1,38
415,394	5,38
415,658	-10,62
415,922	0,38
416,186	-6,62
416,45	-2,62
416,714	4,38
416,978	2,38
417,242	-9,62
417,506	0,38
417,77	-0,62
418,034	8,38
418,298	-9,62
418,562	11,38
418,825	4,38
419,089	-6,62
419,353	-17,62
419,617	-8,62
419,881	-3,62
420,145	-12,62
420,409	-5,62
420,673	0,38
420,937	-15,62
421,2	-7,62
421,464	2,38
421,728	-2,62
421,992	-8,62
422,256	-11,62
422,52	12,38
422,783	-0,62
423,047	9,38
423,311	-2,62
423,575	-1,62
423,839	-9,62
424,102	-18,62
424,366	-14,62
424,63	-6,62
424,894	-7,62
425,157	-10,62
425,421	4,38
425,685	-15,62
425,949	-13,62
426,212	-3,62
426,476	-21,62
426,74	-17,62
427,003	9,38
427,267	-1,62
427,531	5,38
427,794	-8,62
428,058	-21,62
428,322	-29,62
428,585	-16,62
428,849	-4,62
429,112	-6,62
429,376	12,38
429,64	10,38
429,903	-19,62
430,167	9,38
430,43	-4,62
430,694	-14,62
430,957	7,38
431,221	-0,62
431,485	-19,62
431,748	-1,62
432,012	-8,62
432,275	7,38
432,539	12,38
432,802	22,38
433,066	-3,62
433,329	-22,62
433,593	-9,62
433,856	3,38
434,119	3,38
434,383	7,38
434,646	-2,62
434,91	12,38
435,173	-20,62
435,437	1,38
435,7	-1,62
435,963	-2,62
436,227	5,38
436,49	-15,62
436,753	-10,62
437,017	-7,62
437,28	-16,62
437,544	0,38
437,807	-1,62
438,07	-15,62
438,334	-18,62
438,597	-7,62
438,86	-13,62
439,123	-13,62
439,387	-10,62
439,65	-13,62
439,913	-19,62
440,177	-23,62
440,44	-4,62
440,703	-16,62
440,966	-4,62
441,229	-1,62
441,493	-0,62
441,756	-6,62
442,019	-0,62
442,282	6,38
442,545	-16,62
442,809	29,38
443,072	17,38
443,335	-10,62
443,598	-7,62
443,861	-18,62
444,124	-12,62
444,388	1,38
444,651	7,38
444,914	15,38
445,177	-9,62
445,44	6,38
445,703	-14,62
445,966	12,38
446,229	-11,62
446,492	6,38
446,755	17,38
447,018	-2,62
447,281	-14,62
447,544	0,38
447,807	20,38
448,07	18,38
448,333	-12,62
448,596	-9,62
448,859	4,38
449,122	24,38
449,385	-6,62
449,648	-11,62
449,911	-3,62
450,174	-21,62
450,437	6,38
450,7	-12,62
450,963	-14,62
451,226	-6,62
451,489	-19,62
451,752	11,38
452,015	-10,62
452,277	-11,62
452,54	11,38
452,803	-2,62
453,066	-3,62
453,329	-7,62
453,592	-2,62
453,855	-23,62
454,117	-17,62
454,38	-5,62
454,643	-10,62
454,906	-20,62
455,169	-7,62
455,431	-14,62
455,694	13,38
455,957	17,38
456,22	4,38
456,482	0,38
456,745	0,38
457,008	7,38
457,271	15,38
457,533	18,38
457,796	0,38
458,059	0,38
458,321	-22,62
458,584	-16,62
458,847	-15,62
459,109	-22,62
459,372	4,38
459,635	-5,62
459,897	0,38
460,16	10,38
460,423	10,38
460,685	11,38
460,948	18,38
461,21	-16,62
461,473	-8,62
461,735	-6,62
461,998	-1,62
462,261	13,38
462,523	-7,62
462,786	4,38
463,048	-14,62
463,311	-20,62
463,573	2,38
463,836	-23,62
464,098	12,38
464,361	-6,62
464,623	-22,62
464,886	-16,62
465,148	-4,62
465,411	-2,62
465,673	0,38
465,936	-1,62
466,198	5,38
466,46	-7,62
466,723	-1,62
466,985	-6,62
467,248	-10,62
467,51	-19,62
467,772	-7,62
468,035	3,38
468,297	2,38
468,56	-10,62
468,822	15,38
469,084	-17,62
469,347	5,38
469,609	4,38
469,871	10,38
470,133	9,38
470,396	1,38
470,658	-6,62
470,92	-1,62
471,183	8,38
471,445	19,38
471,707	5,38
471,969	1,38
472,232	-13,62
472,494	-4,62
472,756	0,38
473,018	-0,62
473,281	1,38
473,543	-5,62
473,805	-8,62
474,067	5,38
474,329	6,38
474,591	-2,62
474,854	-2,62
475,116	-2,62
475,378	-5,62
475,64	-14,62
475,902	-2,62
476,164	3,38
476,426	14,38
476,688	0,38
476,951	-5,62
477,213	27,38
477,475	3,38
477,737	-23,62
477,999	-21,62
478,261	1,38
478,523	-10,62
478,785	1,38
479,047	-10,62
479,309	8,38
479,571	0,38
479,833	-7,62
480,095	-0,62
480,357	-2,62
480,619	8,38
480,881	-9,62
481,143	-5,62
481,405	-18,62
481,667	19,38
481,929	19,38
482,191	-5,62
482,452	-11,62
482,714	5,38
482,976	3,38
483,238	1,38
483,5	-12,62
483,762	-2,62
484,024	1,38
484,286	13,38
484,547	1,38
484,809	12,38
485,071	21,38
485,333	0,38
485,595	9,38
485,857	3,38
486,118	1,38
486,38	2,38
486,642	-6,62
486,904	1,38
487,165	6,38
487,427	-0,62
487,689	19,38
487,951	8,38
488,212	31,38
488,474	-2,62
488,736	-2,62
488,998	6,38
489,259	19,38
489,521	3,38
489,783	19,38
490,044	16,38
490,306	21,38
490,568	32,38
490,829	9,38
491,091	-6,62
491,353	11,38
491,614	12,38
491,876	17,38
492,137	14,38
492,399	30,38
492,661	22,38
492,922	35,38
493,184	5,38
493,445	13,38
493,707	34,38
493,968	13,38
494,23	17,38
494,491	31,38
494,753	22,38
495,014	28,38
495,276	5,38
495,537	21,38
495,799	12,38
496,06	40,38
496,322	31,38
496,583	34,38
496,845	28,38
497,106	34,38
497,368	38,38
497,629	31,38
497,89	39,38
498,152	41,38
498,413	34,38
498,675	27,38
498,936	32,38
499,197	25,38
499,459	30,38
499,72	37,38
499,981	47,38
500,243	63,38
500,504	58,38
500,765	36,38
501,027	41,38
501,288	53,38
501,549	58,38
501,811	59,38
502,072	50,38
502,333	72,38
502,594	60,38
502,856	49,38
503,117	58,38
503,378	69,38
503,639	54,38
503,901	65,38
504,162	55,38
504,423	73,38
504,684	69,38
504,945	78,38
505,207	104,38
505,468	96,38
505,729	89,38
505,99	81,38
506,251	96,38
506,512	111,38
506,774	105,38
507,035	109,38
507,296	109,38
507,557	105,38
507,818	102,38
508,079	116,38
508,34	112,38
508,601	109,38
508,862	130,38
509,123	136,38
509,384	122,38
509,645	137,38
509,906	140,38
510,167	129,38
510,428	126,38
510,689	139,38
510,95	154,38
511,211	170,38
511,472	171,38
511,733	151,38
511,994	156,38
512,255	164,38
512,516	169,38
512,777	192,38
513,038	198,38
513,299	178,38
513,56	214,38
513,821	200,38
514,082	218,38
514,343	216,38
514,603	214,38
514,864	227,38
515,125	223,38
515,386	241,38
515,647	223,38
515,908	242,38
516,169	232,38
516,429	242,38
516,69	239,38
516,951	278,38
517,212	259,38
517,473	240,38
517,733	283,38
517,994	289,38
518,255	277,38
518,516	265,38
518,776	267,38
519,037	286,38
519,298	279,38
519,559	296,38
519,819	288,38
520,08	299,38
520,341	280,38
520,601	321,38
520,862	335,38
521,123	319,38
521,383	327,38
521,644	339,38
521,905	351,38
522,165	354,38
522,426	326,38
522,686	368,38
522,947	343,38
523,208	354,38
523,468	372,38
523,729	368,38
523,989	380,38
524,25	384,38
524,51	366,38
524,771	388,38
525,032	375,38
525,292	374,38
525,553	381,38
525,813	372,38
526,074	394,38
526,334	398,38
526,595	382,38
526,855	391,38
527,116	366,38
527,376	425,38
527,636	400,38
527,897	387,38
528,157	424,38
528,418	412,38
528,678	400,38
528,939	408,38
529,199	421,38
529,459	426,38
529,72	425,38
529,98	424,38
530,24	438,38
530,501	426,38
530,761	423,38
531,022	442,38
531,282	416,38
531,542	413,38
531,803	429,38
532,063	412,38
532,323	432,38
532,583	436,38
532,844	415,38
533,104	411,38
533,364	416,38
533,624	429,38
533,885	420,38
534,145	422,38
534,405	429,38
534,665	432,38
534,926	443,38
535,186	430,38
535,446	432,38
535,706	406,38
535,966	417,38
536,227	433,38
536,487	427,38
536,747	405,38
537,007	415,38
537,267	430,38
537,527	412,38
537,787	432,38
538,048	399,38
538,308	423,38
538,568	401,38
538,828	394,38
539,088	410,38
539,348	389,38
539,608	391,38
539,868	420,38
540,128	384,38
540,388	394,38
540,648	416,38
540,908	393,38
541,168	384,38
541,428	384,38
541,688	376,38
541,948	366,38
542,208	363,38
542,468	368,38
542,728	368,38
542,988	363,38
543,248	347,38
543,508	354,38
543,768	362,38
544,028	359,38
544,288	343,38
544,548	367,38
544,807	346,38
545,067	344,38
545,327	330,38
545,587	325,38
545,847	354,38
546,107	297,38
546,367	321,38
546,626	316,38
546,886	309,38
547,146	315,38
547,406	318,38
547,666	300,38
547,925	307,38
548,185	297,38
548,445	297,38
548,705	296,38
548,965	282,38
549,224	282,38
549,484	312,38
549,744	302,38
550,003	290,38
550,263	280,38
550,523	270,38
550,783	242,38
551,042	260,38
551,302	238,38
551,562	270,38
551,821	246,38
552,081	272,38
552,341	268,38
552,6	246,38
552,86	248,38
553,119	233,38
553,379	235,38
553,639	244,38
553,898	236,38
554,158	216,38
554,417	230,38
554,677	220,38
554,936	226,38
555,196	220,38
555,456	224,38
555,715	186,38
555,975	182,38
556,234	203,38
556,494	185,38
556,753	181,38
557,013	207,38
557,272	216,38
557,532	167,38
557,791	180,38
558,051	186,38
558,31	175,38
558,569	173,38
558,829	147,38
559,088	183,38
559,348	161,38
559,607	171,38
559,866	157,38
560,126	132,38
560,385	143,38
560,645	136,38
560,904	133,38
561,163	146,38
561,423	131,38
561,682	140,38
561,941	137,38
562,201	136,38
562,46	138,38
562,719	118,38
562,979	112,38
563,238	127,38
563,497	135,38
563,756	103,38
564,016	116,38
564,275	123,38
564,534	106,38
564,793	104,38
565,053	103,38
565,312	98,38
565,571	86,38
565,83	118,38
566,089	93,38
566,349	90,38
566,608	93,38
566,867	71,38
567,126	98,38
567,385	101,38
567,644	92,38
567,903	77,38
568,163	70,38
568,422	77,38
568,681	52,38
568,94	88,38
569,199	70,38
569,458	51,38
569,717	70,38
569,976	64,38
570,235	59,38
570,494	71,38
570,753	51,38
571,012	56,38
571,271	86,38
571,53	61,38
571,789	72,38
572,048	64,38
572,307	48,38
572,566	54,38
572,825	63,38
573,084	49,38
573,343	61,38
573,602	62,38
573,861	65,38
574,12	56,38
574,379	46,38
574,638	50,38
574,897	39,38
575,156	38,38
575,414	50,38
575,673	59,38
575,932	52,38
576,191	44,38
576,45	54,38
576,709	26,38
576,968	54,38
577,226	36,38
577,485	37,38
577,744	63,38
578,003	41,38
578,262	23,38
578,52	24,38
578,779	28,38
579,038	37,38
579,297	39,38
579,555	5,38
579,814	11,38
580,073	9,38
580,332	41,38
580,59	19,38
580,849	26,38
581,108	21,38
581,366	12,38
581,625	20,38
581,884	44,38
582,142	33,38
582,401	50,38
582,66	14,38
582,918	18,38
583,177	16,38
583,436	23,38
583,694	19,38
583,953	26,38
584,211	3,38
584,47	15,38
584,728	17,38
584,987	17,38
585,246	24,38
585,504	26,38
585,763	9,38
586,021	-0,62
586,28	6,38
586,538	15,38
586,797	5,38
587,055	8,38
587,314	-0,62
587,572	9,38
587,831	23,38
588,089	8,38
588,348	0,38
588,606	10,38
588,864	5,38
589,123	1,38
589,381	-4,62
589,64	7,38
589,898	-4,62
590,157	13,38
590,415	1,38
590,673	1,38
590,932	5,38
591,19	-14,62
591,448	-2,62
591,707	-2,62
591,965	6,38
592,223	-9,62
592,482	-1,62
592,74	0,38
592,998	-4,62
593,257	-0,62
593,515	4,38
593,773	1,38
594,031	-7,62
594,29	-7,62
594,548	-16,62
594,806	-6,62
595,064	5,38
595,323	-18,62
595,581	-5,62
595,839	-5,62
596,097	12,38
596,355	17,38
596,613	-3,62
596,872	-5,62
597,13	10,38
597,388	21,38
597,646	1,38
597,904	0,38
598,162	3,38
598,42	4,38
598,679	-3,62
598,937	3,38
599,195	1,38
599,453	-11,62
599,711	13,38
599,969	4,38
600,227	6,38
600,485	-5,62
600,743	7,38
601,001	0,38
601,259	9,38
601,517	-6,62
601,775	-12,62
602,033	-19,62
602,291	1,38
602,549	12,38
602,807	9,38
603,065	0,38
603,323	-3,62
603,581	-5,62
603,839	-8,62
604,097	-4,62
604,355	5,38
604,613	10,38
604,871	-4,62
605,128	-4,62
605,386	-9,62
605,644	2,38
605,902	-9,62
606,16	-10,62
606,418	6,38
606,676	-1,62
606,933	-9,62
607,191	0,38
607,449	-19,62
607,707	-12,62
607,965	-6,62
608,223	-3,62
608,48	-3,62
608,738	-13,62
608,996	-6,62
609,254	-1,62
609,511	25,38
609,769	-2,62
610,027	0,38
610,285	-30,62
610,542	-20,62
610,8	-9,62
611,058	-7,62
611,315	-17,62
611,573	-7,62
611,831	-23,62
612,088	1,38
612,346	-9,62
612,604	9,38
612,861	-28,62
613,119	-16,62
613,376	-8,62
613,634	-5,62
613,892	-9,62
614,149	-2,62
614,407	6,38
614,664	1,38
614,922	5,38
615,18	-1,62
615,437	6,38
615,695	-5,62
615,952	-1,62
616,21	-10,62
616,467	4,38
616,725	-5,62
616,982	-16,62
617,24	-16,62
617,497	3,38
617,755	3,38
618,012	-3,62
618,27	9,38
618,527	-8,62
618,784	2,38
619,042	-13,62
619,299	-6,62
619,557	4,38
619,814	-3,62
620,071	0,38
620,329	-6,62
620,586	6,38
620,844	-2,62
621,101	24,38
621,358	-1,62
621,616	-18,62
621,873	0,38
622,13	-8,62
622,388	12,38
622,645	-7,62
622,902	-3,62
623,159	8,38
623,417	6,38
623,674	-27,62
623,931	-7,62
624,188	-7,62
624,446	6,38
624,703	-7,62
624,96	-3,62
625,217	-9,62
625,475	-0,62
625,732	1,38
625,989	18,38
626,246	9,38
626,503	-1,62
626,761	4,38
627,018	10,38
627,275	5,38
627,532	1,38
627,789	0,38
628,046	-10,62
628,303	-8,62
628,56	0,38
628,818	0,38
629,075	4,38
629,332	6,38
629,589	7,38
629,846	3,38
630,103	-5,62
630,36	5,38
630,617	-16,62
630,874	-14,62
631,131	-19,62
631,388	-6,62
631,645	-18,62
631,902	-9,62
632,159	-8,62
632,416	-18,62
632,673	-4,62
632,93	6,38
633,187	-7,62
633,444	-4,62
633,701	-1,62
633,958	5,38
634,215	13,38
634,471	-16,62
634,728	-1,62
634,985	2,38
635,242	0,38
635,499	-3,62
635,756	-15,62
636,013	3,38
636,27	-8,62
636,526	10,38
636,783	0,38
637,04	14,38
637,297	-5,62
637,554	7,38
637,81	14,38
638,067	13,38
638,324	12,38
638,581	-6,62
638,838	4,38
639,094	16,38
639,351	12,38
639,608	1,38
639,864	-2,62
640,121	-8,62
640,378	-5,62
640,635	-16,62
640,891	-8,62
641,148	12,38
641,405	4,38
641,661	0,38
641,918	6,38
642,175	-0,62
642,431	-4,62
642,688	-0,62
642,944	2,38
643,201	20,38
643,458	6,38
643,714	-17,62
643,971	-6,62
644,227	3,38
644,484	0,38
644,741	-6,62
644,997	-7,62
645,254	-3,62
645,51	5,38
645,767	15,38
646,023	9,38
646,28	3,38
646,536	-0,62
646,793	0,38
647,049	21,38
647,306	4,38
647,562	12,38
647,819	-2,62
648,075	6,38
648,331	12,38
648,588	-0,62
648,844	-13,62
649,101	-7,62
649,357	-13,62
649,613	-8,62
649,87	-5,62
650,126	-7,62
650,383	-6,62
650,639	-0,62
650,895	-1,62
651,152	6,38
651,408	0,38
651,664	-9,62
651,921	-14,62
652,177	-13,62
652,433	-4,62
652,689	-10,62
652,946	3,38
653,202	9,38
653,458	-5,62
653,715	-6,62
653,971	-22,62
654,227	-12,62
654,483	-2,62
654,739	-10,62
654,996	-26,62
655,252	-14,62
655,508	-0,62
655,764	2,38
656,02	1,38
656,277	-11,62
656,533	3,38
656,789	19,38
657,045	-20,62
657,301	-13,62
657,557	-1,62
657,813	-2,62
658,07	4,38
658,326	-5,62
658,582	-4,62
658,838	3,38
659,094	-2,62
659,35	-7,62
659,606	-9,62
659,862	-2,62
660,118	-14,62
660,374	-10,62
660,63	8,38
660,886	-19,62
661,142	-5,62
661,398	-18,62
661,654	-3,62
661,91	-17,62
662,166	-8,62
662,422	-1,62
662,678	-0,62
662,934	-7,62
663,19	-4,62
663,446	-8,62
663,702	1,38
663,957	-8,62
664,213	-15,62
664,469	-0,62
664,725	-6,62
664,981	-1,62
665,237	-9,62
665,493	2,38
665,749	13,38
666,004	0,38
666,26	-7,62
666,516	-0,62
666,772	7,38
667,028	-10,62
667,283	-9,62
667,539	0,38
667,795	22,38
668,051	14,38
668,307	23,38
668,562	22,38
668,818	3,38
669,074	-15,62
669,329	-12,62
669,585	-2,62
669,841	-6,62
670,097	-12,62
670,352	1,38
670,608	-14,62
670,864	-14,62
671,119	-8,62
671,375	4,38
671,631	-7,62
671,886	-13,62
672,142	-8,62
672,397	11,38
672,653	-6,62
672,909	13,38
673,164	-4,62
673,42	8,38
673,675	2,38
673,931	4,38
674,186	-17,62
674,442	-16,62
674,698	-4,62
674,953	-6,62
675,209	-7,62
675,464	-2,62
675,72	5,38
675,975	-0,62
676,231	8,38
676,486	14,38
676,742	-13,62
676,997	-6,62
677,252	-9,62
677,508	-5,62
677,763	15,38
678,019	0,38
678,274	4,38
678,53	3,38
678,785	-2,62
679,04	11,38
679,296	-23,62
679,551	2,38
679,806	-9,62
680,062	4,38
680,317	-1,62
680,572	9,38
680,828	-5,62
681,083	-1,62
681,338	6,38
681,594	-12,62
681,849	-2,62
682,104	-3,62
682,36	-2,62
682,615	-6,62
682,87	-10,62
683,125	-10,62
683,381	-14,62
683,636	-16,62
683,891	-17,62
684,146	0,38
684,401	-4,62
684,657	11,38
684,912	-3,62
685,167	-7,62
685,422	-12,62
685,677	-13,62
685,932	-4,62
686,188	-2,62
686,443	-1,62
686,698	9,38
686,953	-8,62
687,208	-9,62
687,463	-8,62
687,718	-24,62
687,973	-4,62
688,228	-30,62
688,483	-12,62
688,739	1,38
688,994	2,38
689,249	-1,62
689,504	-1,62
689,759	17,38
690,014	1,38
690,269	-7,62
690,524	-14,62
690,779	0,38
691,034	-5,62
691,289	1,38
691,544	-1,62
691,798	10,38
692,053	15,38
692,308	10,38
692,563	-6,62
692,818	-7,62
693,073	-13,62
693,328	14,38
693,583	-8,62
693,838	-0,62
694,093	-9,62
694,347	-18,62
694,602	10,38
694,857	-16,62
695,112	9,38
695,367	1,38
695,622	-1,62
695,876	3,38
696,131	-6,62
696,386	6,38
696,641	13,38
696,896	-4,62
697,15	-16,62
697,405	-6,62
697,66	21,38
697,915	-3,62
698,169	23,38
698,424	2,38
698,679	-10,62
698,933	11,38
699,188	-6,62
699,443	-16,62
699,698	-23,62
699,952	-12,62
700,207	-26,62
700,461	5,38
700,716	6,38
700,971	9,38
701,225	-9,62
701,48	-8,62
701,735	-16,62
701,989	0,38
702,244	-9,62
702,498	-17,62
702,753	-5,62
703,007	-3,62
703,262	-7,62
703,517	15,38
703,771	1,38
704,026	1,38
704,28	-15,62
704,535	4,38
704,789	-12,62
705,044	-5,62
705,298	-10,62
705,553	4,38
705,807	-0,62
706,062	-12,62
706,316	-4,62
706,57	9,38
706,825	-6,62
707,079	12,38
707,334	-1,62
707,588	-6,62
707,842	11,38
708,097	-10,62
708,351	-20,62
708,606	-10,62
708,86	-17,62
709,114	-2,62
709,369	1,38
709,623	-3,62
709,877	-5,62
710,132	-10,62
710,386	-5,62
710,64	-11,62
710,895	6,38
711,149	9,38
711,403	-0,62
711,657	21,38
711,912	-4,62
712,166	-10,62
712,42	-6,62
712,674	-8,62
712,928	-18,62
713,183	-8,62
713,437	-11,62
713,691	-1,62
713,945	-10,62
714,199	-6,62
714,454	-7,62
714,708	11,38
714,962	-5,62
715,216	-3,62
715,47	1,38
715,724	-9,62
715,978	-3,62
716,233	-11,62
716,487	-15,62
716,741	-2,62
716,995	-3,62
717,249	-5,62
717,503	7,38
717,757	-9,62
718,011	8,38
718,265	6,38
718,519	-15,62
718,773	-5,62
719,027	-2,62
719,281	-6,62
719,535	-10,62
719,789	-12,62
720,043	1,38
720,297	3,38
720,551	-4,62
720,805	-2,62
721,059	-0,62
721,313	-2,62
721,567	1,38
721,821	-6,62
722,074	-11,62
722,328	-3,62
722,582	8,38
722,836	5,38
723,09	-2,62
723,344	-1,62
723,598	8,38
723,851	1,38
724,105	9,38
724,359	-18,62
724,613	2,38
724,867	-3,62
725,121	-8,62
725,374	4,38
725,628	-1,62
725,882	1,38
726,136	18,38
726,389	-8,62
726,643	-1,62
726,897	7,38
727,151	-11,62
727,404	-4,62
727,658	-9,62
727,912	-13,62
728,165	10,38
728,419	1,38
728,673	-2,62
728,926	-12,62
729,18	-13,62
729,434	-3,62
729,687	-4,62
729,941	-3,62
730,195	3,38
730,448	-18,62
730,702	-15,62
730,955	-0,62
731,209	15,38
731,462	0,38
731,716	-11,62
731,97	-11,62
732,223	-1,62
732,477	8,38
732,73	13,38
732,984	-5,62
733,237	-2,62
733,491	5,38
733,744	-1,62
733,998	-9,62
734,251	-10,62
734,505	-7,62
734,758	-11,62
735,012	-10,62
735,265	0,38
735,518	-0,62
735,772	4,38
736,025	-11,62
736,279	-3,62
736,532	-9,62
736,785	2,38
737,039	-1,62
737,292	-2,62
737,546	-6,62
737,799	-7,62
738,052	4,38
738,306	-1,62
738,559	-8,62
738,812	-15,62
739,066	-11,62
739,319	-0,62
739,572	0,38
739,825	-3,62
740,079	2,38
740,332	7,38
740,585	0,38
740,838	-6,62
741,092	-10,62
741,345	-3,62
741,598	-15,62
741,851	-0,62
742,104	-2,62
742,358	-7,62
742,611	-8,62
742,864	2,38
743,117	-11,62
743,37	16,38
743,623	-2,62
743,877	5,38
744,13	-2,62
744,383	-4,62
744,636	-18,62
744,889	-9,62
745,142	-4,62
745,395	-9,62
745,648	-23,62
745,901	-23,62
746,154	6,38
746,408	7,38
746,661	-9,62
746,914	-10,62
747,167	-25,62
747,42	-6,62
747,673	-7,62
747,926	-7,62
748,179	-7,62
748,432	-11,62
748,685	-5,62
748,938	27,38
749,19	4,38
749,443	5,38
749,696	-2,62
749,949	27,38
750,202	-2,62
750,455	-19,62
750,708	9,38
750,961	-3,62
751,214	51,38
751,467	-3,62
751,719	-9,62
751,972	-0,62
752,225	8,38
752,478	-4,62
752,731	-4,62
752,984	16,38
753,236	17,38
753,489	21,38
753,742	0,38
753,995	-12,62
754,248	8,38
754,5	3,38
754,753	-9,62
755,006	-7,62
755,259	-14,62
755,511	-1,62
755,764	-8,62
756,017	-7,62
756,269	-10,62
756,522	-6,62
756,775	9,38
757,027	-13,62
757,28	-14,62
757,533	-13,62
757,785	-24,62
758,038	-10,62
758,291	-15,62
758,543	-9,62
758,796	-7,62
759,049	-19,62
759,301	-2,62
759,554	-13,62
759,806	-26,62
760,059	-13,62
760,311	10,38
760,564	0,38
760,817	1,38
761,069	-15,62
761,322	-12,62
761,574	-3,62
761,827	-17,62
762,079	-2,62
762,332	2,38
762,584	-18,62
762,837	-0,62
763,089	-12,62
763,341	2,38
763,594	3,38
763,846	-14,62
764,099	-2,62
764,351	0,38
764,604	-6,62
764,856	-18,62
765,108	-27,62
765,361	-15,62
765,613	7,38
765,865	-3,62
766,118	-19,62
766,37	-9,62
766,623	-26,62
766,875	-15,62
767,127	-6,62
767,379	-8,62
767,632	6,38
767,884	-16,62
768,136	-0,62
768,389	1,38
768,641	-5,62
768,893	-4,62
769,145	7,38
769,398	7,38
769,65	16,38
769,902	-7,62
770,154	-5,62
770,406	-8,62
770,659	-3,62
770,911	-3,62
771,163	9,38
771,415	4,38
771,667	-16,62
771,919	-1,62
772,172	-11,62
772,424	-1,62
772,676	0,38
772,928	-4,62
773,18	-2,62
773,432	-11,62
773,684	-2,62
773,936	-8,62
774,188	-7,62
774,44	-15,62
774,693	2,38
774,945	-2,62
775,197	-14,62
775,449	-5,62
775,701	-13,62
775,953	-6,62
776,205	-19,62
776,457	-7,62
776,709	-17,62
776,961	-15,62
777,213	4,38
777,464	-1,62
777,716	-6,62
777,968	-11,62
778,22	-27,62
778,472	-0,62
778,724	-3,62
778,976	-15,62
779,228	-10,62
779,48	-11,62
779,732	-4,62
779,984	-3,62
780,235	3,38
780,487	-7,62
780,739	2,38
780,991	-35,62
781,243	-21,62
781,494	0,38
781,746	6,38
781,998	-0,62
782,25	-21,62
782,502	-11,62
782,753	-6,62
783,005	-8,62
783,257	-14,62
783,509	-13,62
783,76	-2,62
784,012	20,38
784,264	-20,62
784,515	-7,62
784,767	8,38
785,019	-19,62
785,271	-7,62
785,522	-3,62
785,774	-9,62
786,026	-15,62
786,277	-7,62
786,529	-9,62
786,78	2,38
787,032	-8,62
787,284	-16,62
787,535	-0,62
787,787	-9,62
788,038	-18,62
788,29	-16,62
788,541	3,38
788,793	-12,62
789,045	-12,62
789,296	-4,62
789,548	-4,62
789,799	-12,62
790,051	-10,62
790,302	-2,62
790,554	-8,62
790,805	-9,62
791,057	-1,62
791,308	-13,62
791,559	-6,62
791,811	-13,62
792,062	-4,62
792,314	-11,62
792,565	-10,62
792,817	10,38
793,068	0,38
793,319	-19,62
793,571	-8,62
793,822	-7,62
794,073	-2,62
794,325	-15,62
794,576	5,38
794,827	-11,62
795,079	-13,62
795,33	-13,62
795,581	-17,62
795,833	-15,62
796,084	-6,62
796,335	-20,62
796,587	-13,62
796,838	-2,62
797,089	-13,62
797,34	-0,62
797,592	-5,62
797,843	-20,62
798,094	-10,62
798,345	-10,62
798,596	-2,62
798,848	-10,62
799,099	-11,62
799,35	-0,62
799,601	1,38
799,852	-14,62
800,103	-13,62
800,355	-0,62
800,606	51,38
800,857	4,38
801,108	-0,62
801,359	-7,62
801,61	-0,62
801,861	-31,62
802,112	-18,62
802,363	-29,62
802,614	-7,62
802,865	-10,62
803,116	-10,62
803,367	-11,62
803,618	-11,62
803,869	-0,62
804,12	-19,62
804,371	-10,62
804,622	-22,62
804,873	-15,62
805,124	-4,62
805,375	-15,62
805,626	-16,62
805,877	-27,62
806,128	1,38
806,379	-18,62
806,63	-26,62
806,881	-10,62
807,132	-21,62
807,383	-14,62
807,634	-19,62
807,884	-8,62
808,135	6,38
808,386	-10,62
808,637	12,38
808,888	-7,62
809,139	-18,62
809,389	-14,62
809,64	7,38
809,891	-3,62
810,142	-6,62
810,393	-17,62
810,643	-12,62
810,894	-10,62
811,145	-23,62
811,396	-28,62
811,646	-13,62
811,897	-17,62
812,148	13,38
812,398	-6,62
812,649	0,38
812,9	-14,62
813,151	6,38
813,401	-15,62
813,652	40,38
813,902	8,38
814,153	-19,62
814,404	2,38
814,654	-0,62
814,905	-2,62
815,156	-5,62
815,406	-2,62
815,657	-6,62
815,907	-8,62
816,158	-14,62
816,408	-8,62
816,659	3,38
816,91	-10,62
817,16	-5,62
817,411	-13,62
817,661	-9,62
817,912	-14,62
818,162	-19,62
818,413	-10,62
818,663	-11,62
818,914	-24,62
819,164	-14,62
819,414	-22,62
819,665	-0,62
819,915	-4,62
820,166	-12,62
820,416	-19,62
820,667	-3,62
820,917	-10,62
821,167	-1,62
821,418	7,38
821,668	-7,62
821,918	-10,62
822,169	-11,62
822,419	-13,62
822,67	-13,62
822,92	-26,62
823,17	-0,62
823,42	-0,62
823,671	-14,62
823,921	-11,62
824,171	-18,62
824,422	-17,62
824,672	-21,62
824,922	-13,62
825,172	-7,62
825,423	-6,62
825,673	-1,62
825,923	-17,62
826,173	-3,62
826,423	-16,62
826,674	-17,62
826,924	-6,62
827,174	-14,62
827,424	-17,62
827,674	-2,62
827,924	-5,62
828,175	-9,62
828,425	-25,62
828,675	-14,62
828,925	11,38
829,175	6,38
829,425	10,38
829,675	0,38
829,925	-15,62
830,175	4,38
830,425	-15,62
830,675	5,38
830,925	-3,62
831,175	15,38
831,425	-1,62
831,676	-3,62
831,926	-6,62
832,175	-17,62
832,425	-16,62
832,675	0,38
832,925	7,38
833,175	-16,62
833,425	-30,62
833,675	-13,62
833,925	2,38
834,175	-6,62
834,425	-7,62
834,675	-3,62
834,925	-9,62
835,175	-4,62
835,425	-21,62
835,674	-16,62
835,924	-13,62
836,174	-10,62
836,424	-6,62
836,674	-18,62
836,924	-0,62
837,173	-6,62
837,423	-8,62
837,673	-6,62
837,923	-6,62
838,173	-16,62
838,422	-16,62
838,672	1,38
838,922	-10,62
839,172	-14,62
839,421	0,38
839,671	-9,62
839,921	-9,62
840,17	-0,62
840,42	-4,62
840,67	-3,62
840,919	0,38
841,169	6,38
841,419	-4,62
841,668	-6,62
841,918	-11,62
842,168	-7,62
842,417	-15,62
842,667	0,38
842,916	-23,62
843,166	-8,62
843,416	-10,62
843,665	-16,62
843,915	-6,62
844,164	0,38
844,414	-6,62
844,663	-11,62
844,913	-3,62
845,162	-1,62
845,412	-6,62
845,662	-18,62
845,911	-19,62
846,16	-20,62
846,41	-15,62
846,659	-14,62
846,909	-3,62
847,158	-8,62
847,408	-13,62
847,657	-11,62
847,907	-13,62
848,156	-21,62
848,405	-20,62
848,655	-6,62
848,904	-7,62
849,154	-11,62
849,403	-9,62
849,652	-14,62
849,902	-26,62
850,151	-27,62
850,4	-22,62
850,65	-6,62
850,899	-16,62
851,148	0,38
851,398	-21,62
851,647	25,38
851,896	0,38
852,145	-6,62
852,395	0,38
852,644	-15,62
852,893	8,38
853,142	12,38
853,392	-18,62
853,641	-7,62
853,89	-8,62
854,139	-8,62
854,388	-9,62
854,637	4,38
854,887	-10,62
855,136	1,38
855,385	-5,62
855,634	-8,62
855,883	12,38
856,132	-3,62
856,381	-22,62
856,631	-2,62
856,88	-7,62
857,129	10,38
857,378	-4,62
857,627	-7,62
857,876	-0,62
858,125	-16,62
858,374	-17,62
858,623	-4,62
858,872	4,38
859,121	0,38
859,37	-0,62
859,619	-3,62
859,868	-2,62
860,117	-18,62
860,366	-16,62
860,615	-14,62
860,864	-20,62
861,113	-14,62
861,362	-15,62
861,611	-5,62
861,86	-22,62
862,108	-12,62
862,357	2,38
862,606	-14,62
862,855	-22,62
863,104	-19,62
863,353	-21,62
863,602	-11,62
863,851	43,38
864,099	-2,62
864,348	-17,62
864,597	-0,62
864,846	-7,62
865,095	2,38
865,343	-10,62
865,592	-6,62
865,841	-5,62
866,09	6,38
866,338	-7,62
866,587	3,38
866,836	1,38
867,085	-26,62
867,333	-9,62
867,582	-9,62
867,831	-8,62
868,079	5,38
868,328	-1,62
868,577	-13,62
868,825	-16,62
869,074	-11,62
869,323	-14,62
869,571	-18,62
869,82	-19,62
870,068	-0,62
870,317	-14,62
870,566	-15,62
870,814	-18,62
871,063	-7,62
871,311	-0,62
871,56	-16,62
871,808	-14,62
872,057	-0,62
872,306	-7,62
872,554	-27,62
872,803	-4,62
873,051	-15,62
873,3	-10,62
873,548	-9,62
873,797	-2,62
874,045	-1,62
874,293	-4,62
874,542	-6,62
874,79	-4,62
875,039	-15,62
875,287	-16,62
875,536	-16,62
875,784	-12,62
876,032	13,38
876,281	-2,62
876,529	10,38
876,777	-3,62
877,026	-6,62
877,274	-10,62
877,523	-7,62
877,771	2,38
878,019	-15,62
878,267	-7,62
878,516	-3,62
878,764	-15,62
879,012	-8,62
879,261	-7,62
879,509	9,38
879,757	-26,62
880,005	1,38
880,254	-12,62
880,502	-4,62
880,75	-18,62
880,998	-8,62
881,246	-0,62
881,495	-15,62
881,743	-10,62
881,991	-12,62
882,239	-3,62
882,487	-9,62
882,735	-7,62
882,984	-14,62
883,232	-5,62
883,48	-14,62
883,728	-4,62
883,976	-21,62
884,224	-21,62
884,472	-6,62
884,72	-9,62
884,968	9,38
885,216	12,38
885,464	-16,62
885,712	-7,62
885,96	14,38
886,208	-7,62
886,457	-16,62
886,704	1,38
886,952	-9,62
887,2	-11,62
887,448	-35,62
887,696	-27,62
887,944	13,38
888,192	9,38
888,44	-10,62
888,688	-15,62
888,936	-9,62
889,184	15,38
889,432	-3,62
889,68	8,38
889,928	-16,62
890,175	-7,62
890,423	-6,62
890,671	-4,62
890,919	3,38
891,167	7,38
891,415	-13,62
891,663	-11,62
891,91	2,38
892,158	1,38
892,406	-13,62
892,654	-7,62
892,901	-1,62
893,149	-7,62
893,397	-13,62
893,645	-7,62
893,892	-11,62
894,14	-7,62
894,388	-4,62
894,636	-13,62
894,883	-28,62
895,131	-6,62
895,379	-27,62
895,626	-8,62
895,874	-9,62
896,122	3,38
896,369	5,38
896,617	-18,62
896,864	-4,62
897,112	-15,62
897,36	-19,62
897,607	-8,62
897,855	-15,62
898,102	-7,62
898,35	-8,62
898,598	-16,62
898,845	-9,62
899,093	-13,62
899,34	6,38
899,588	-17,62
899,835	-18,62
900,083	-5,62
900,33	-17,62
900,578	-1,62
900,825	1,38
901,073	-5,62
901,32	1,38
901,568	-5,62
901,815	-10,62
902,062	-10,62
902,31	-6,62
902,557	-13,62
902,805	63,38
903,052	-4,62
903,299	-7,62
903,547	-11,62
903,794	-0,62
904,042	-26,62
904,289	-15,62
904,536	-9,62
904,784	0,38
905,031	-11,62
905,278	-5,62
905,525	0,38
905,773	-2,62
906,02	-14,62
906,267	-22,62
906,515	16,38
906,762	2,38
907,009	-1,62
907,256	-10,62
907,504	-18,62
907,751	-6,62
907,998	-2,62
908,245	-8,62
908,492	-6,62
908,74	1,38
908,987	11,38
909,234	-10,62
909,481	-8,62
909,728	-9,62
909,975	-6,62
910,222	-10,62
910,47	-13,62
910,717	-7,62
910,964	-10,62
911,211	-16,62
911,458	-16,62
911,705	-5,62
911,952	-17,62
912,199	-9,62
912,446	-21,62
912,693	15,38
912,94	-9,62
913,187	-6,62
913,434	-13,62
913,681	-6,62
913,928	-11,62
914,175	-7,62
914,422	-8,62
914,669	-6,62
914,916	-2,62
915,163	-10,62
915,41	-13,62
915,657	-20,62
915,904	-10,62
916,151	-8,62
916,398	14,38
916,644	3,38
916,891	-1,62
917,138	-11,62
917,385	5,38
917,632	-10,62
917,879	-7,62
918,126	-3,62
918,372	-1,62
918,619	-2,62
918,866	5,38
919,113	2,38
919,36	-9,62
919,606	7,38
919,853	1,38
920,1	-20,62
920,347	-15,62
920,593	-20,62
920,84	-10,62
921,087	-1,62
921,334	-17,62
921,58	-6,62
921,827	1,38
922,074	-28,62
922,32	-7,62
922,567	-2,62
922,814	-9,62
923,06	-2,62
923,307	0,38
923,554	-4,62
923,8	-3,62
924,047	-17,62
924,293	-6,62
924,54	-7,62
924,787	-18,62
925,033	-22,62
925,28	-10,62
925,526	0,38
925,773	15,38
926,019	2,38
926,266	6,38
926,512	-7,62
926,759	-2,62
927,005	7,38
927,252	-0,62
927,498	-15,62
927,745	-21,62
927,991	-11,62
928,238	-10,62
928,484	2,38
928,731	-1,62
928,977	5,38
929,223	4,38
929,47	-8,62
929,716	-15,62
929,963	-4,62
930,209	-13,62
930,455	-2,62
930,702	6,38
930,948	-2,62
931,194	-6,62
931,441	-4,62
931,687	-20,62
931,933	-20,62
932,18	-27,62
932,426	-27,62
932,672	-9,62
932,919	6,38
933,165	-4,62
933,411	4,38
933,657	-4,62
933,904	-12,62
934,15	-11,62
934,396	-10,62
934,642	-10,62
934,889	-1,62
935,135	-0,62
935,381	-7,62
935,627	-2,62
935,873	-17,62
936,119	4,38
936,366	-3,62
936,612	-5,62
936,858	-0,62
937,104	1,38
937,35	25,38
937,596	-15,62
937,842	-20,62
938,088	-15,62
938,334	2,38
938,58	-0,62
938,827	-5,62
939,073	-4,62
939,319	-15,62
939,565	-15,62
939,811	-13,62
940,057	-13,62
940,303	8,38
940,549	1,38
940,795	1,38
941,041	-14,62
941,287	0,38
941,533	5,38
941,778	-33,62
942,024	-41,62
942,27	-22,62
942,516	-10,62
942,762	-1,62
943,008	-11,62
943,254	9,38
943,5	3,38
943,746	3,38
943,992	-0,62
944,237	7,38
944,483	-6,62
944,729	1,38
944,975	1,38
945,221	5,38
945,467	11,38
945,712	-17,62
945,958	3,38
946,204	-8,62
946,45	-5,62
946,695	1,38
946,941	-10,62
947,187	11,38
947,433	-23,62
947,678	-0,62
947,924	-23,62
948,17	-0,62
948,415	0,38
948,661	-1,62
948,907	-6,62
949,153	-5,62
949,398	20,38
949,644	-0,62
949,889	-7,62
950,135	-15,62
950,381	-14,62
950,626	8,38
950,872	14,38
951,118	3,38
951,363	-6,62
951,609	-1,62
951,854	-6,62
952,1	-13,62
952,345	-7,62
952,591	-7,62
952,836	-6,62
953,082	-20,62
953,327	-11,62
953,573	-6,62
953,818	-2,62
954,064	11,38
954,309	1,38
954,555	1,38
954,8	-1,62
955,046	-11,62
955,291	-15,62
955,537	-13,62
955,782	-32,62
956,027	0,38
956,273	-0,62
956,518	4,38
956,764	8,38
957,009	-15,62
957,254	-25,62
957,5	-8,62
957,745	4,38
957,99	-12,62
958,236	-11,62
958,481	-26,62
958,726	4,38
958,972	-14,62
959,217	-17,62
959,462	6,38
959,707	2,38
959,953	10,38
960,198	-12,62
960,443	-14,62
960,688	-4,62
960,934	21,38
961,179	-7,62
961,424	-15,62
961,669	-3,62
961,914	-2,62
962,16	-9,62
962,405	-6,62
962,65	-7,62
962,895	-5,62
963,14	-6,62
963,385	-5,62
963,63	-3,62
963,876	-7,62
964,121	-6,62
964,366	-15,62
964,611	-9,62
964,856	-0,62
965,101	-18,62
965,346	1,38
965,591	-1,62
965,836	-9,62
966,081	-15,62
966,326	-18,62
966,571	-11,62
966,816	-2,62
967,061	-10,62
967,306	6,38
967,551	-2,62
967,796	-14,62
968,041	-15,62
968,286	-5,62
968,531	0,38
968,776	-14,62
969,021	-23,62
969,266	3,38
969,511	-9,62
969,755	-13,62
970	-11,62
970,245	-9,62
970,49	5,38
970,735	22,38
970,98	2,38
971,225	-5,62
971,469	16,38
971,714	-6,62
971,959	-1,62
972,204	-14,62
972,449	-20,62
972,693	-6,62
972,938	-17,62
973,183	-2,62
973,428	-1,62
973,672	1,38
973,917	-6,62
974,162	-9,62
974,407	-8,62
974,651	-4,62
974,896	-14,62
975,141	9,38
975,385	-3,62
975,63	-12,62
975,875	-15,62
976,119	55,38
976,364	4,38
976,608	-7,62
976,853	-16,62
977,098	-8,62
977,342	-10,62
977,587	-11,62
977,831	2,38
978,076	-2,62
978,321	-7,62
978,565	-9,62
978,81	-0,62
979,054	12,38
979,299	-9,62
979,543	-3,62
979,788	0,38
980,032	-9,62
980,277	-0,62
980,521	-10,62
980,766	-0,62
981,01	3,38
981,255	-18,62
981,499	-6,62
981,743	-9,62
981,988	-20,62
982,232	-15,62
982,477	24,38
982,721	-0,62
982,965	-19,62
983,21	-1,62
983,454	-13,62
983,699	-8,62
983,943	-9,62
984,187	8,38
984,432	-9,62
984,676	-2,62
984,92	2,38
985,165	6,38
985,409	-9,62
985,653	-3,62
985,897	-1,62
986,142	-1,62
986,386	-4,62
986,63	-11,62
986,874	-33,62
987,119	-21,62
987,363	-1,62
987,607	-7,62
987,851	-19,62
988,095	2,38
988,34	-22,62
988,584	-6,62
988,828	-14,62
989,072	-4,62
989,316	1,38
989,56	-11,62
989,804	-10,62
990,049	-16,62
990,293	-10,62
990,537	-11,62
990,781	-20,62
991,025	-10,62
991,269	-13,62
991,513	-13,62
991,757	9,38
992,001	-13,62
992,245	-3,62
992,489	-13,62
992,733	6,38
992,977	-7,62
993,221	-3,62
993,465	-18,62
993,709	-17,62
993,953	-7,62
994,197	-4,62
994,441	-3,62
994,685	5,38
994,929	-11,62
995,173	-3,62
995,417	-7,62
995,661	-16,62
995,904	-9,62
996,148	1,38
996,392	-18,62
996,636	-25,62
996,88	14,38
997,124	16,38
997,368	2,38
997,611	-4,62
997,855	-16,62
998,099	-0,62
998,343	-2,62
998,587	-3,62
998,83	-5,62
999,074	-3,62
999,318	-0,62
999,562	-4,62
999,805	-0,62
1000,049	-13,62
1000,293	-5,62
1000,537	-0,62
1000,78	-5,62
1001,024	-7,62
1001,268	-27,62
1001,511	-6,62
1001,755	-11,62
1001,999	-2,62
1002,242	-19,62
1002,486	-2,62
1002,73	-6,62
1002,973	-1,62
1003,217	-2,62
1003,46	-11,62
1003,704	-10,62
1003,948	0,38
1004,191	9,38
1004,435	-1,62
1004,678	18,38
1004,922	1,38
1005,165	-4,62
1005,409	9,38
1005,652	-1,62
1005,896	3,38
1006,139	5,38
1006,383	0,38
1006,626	-0,62
1006,87	2,38
1007,113	-12,62
1007,357	-5,62
1007,6	3,38
1007,844	0,38
1008,087	-9,62
1008,33	-11,62
1008,574	-3,62
1008,817	-16,62
1009,061	-19,62
1009,304	-15,62
1009,547	-14,62
1009,791	14,38
1010,034	-7,62
1010,277	8,38
1010,521	-14,62
1010,764	-8,62
1011,007	-19,62
1011,251	-14,62
1011,494	-26,62
1011,737	-11,62
1011,98	-14,62
1012,224	-0,62
1012,467	-1,62
1012,71	-3,62
1012,953	-2,62
1013,197	-15,62
1013,44	-14,62
1013,683	-5,62
1013,926	-13,62
1014,169	-17,62
1014,413	-3,62
1014,656	0,38
1014,899	-38,62
1015,142	1,38
1015,385	-2,62
1015,628	4,38
1015,871	-8,62
1016,115	-1,62
1016,358	-7,62
1016,601	-4,62
1016,844	-10,62
1017,087	-7,62
1017,33	-6,62
1017,573	-7,62
1017,816	-11,62
1018,059	10,38
1018,302	-6,62
1018,545	-16,62
1018,788	2,38
1019,031	-10,62
1019,274	-21,62
1019,517	-18,62
1019,76	-8,62
1020,003	-16,62
1020,246	-25,62
1020,489	-3,62
1020,732	-22,62
1020,975	-8,62
1021,218	-15,62
1021,461	-13,62
1021,703	-5,62
1021,946	-5,62
1022,189	-4,62
1022,432	-13,62
1022,675	27,38
1022,918	5,38
1023,161	-5,62
1023,403	-10,62
1023,646	-14,62
1023,889	-4,62
1024,132	12,38
1024,375	-16,62
1024,617	-18,62
1024,86	-10,62
1025,103	3,38
1025,346	-17,62
1025,588	-14,62
1025,831	-11,62
1026,074	-16,62
1026,317	-5,62
1026,559	-2,62
1026,802	-7,62
1027,045	-5,62
1027,287	-3,62
1027,53	-8,62
1027,773	0,38
1028,015	-20,62
1028,258	-2,62
1028,501	-21,62
1028,743	-6,62
1028,986	-11,62
1029,228	15,38
1029,471	-10,62
1029,714	-11,62
1029,956	-11,62
1030,199	-11,62
1030,441	-6,62
1030,684	-3,62
1030,926	-10,62
1031,169	-13,62
1031,411	-5,62
1031,654	-3,62
1031,896	-16,62
1032,139	10,38
1032,381	-8,62
1032,624	-19,62
1032,866	-9,62
1033,109	13,38
1033,351	-13,62
1033,594	-10,62
1033,836	-11,62
1034,079	-23,62
1034,321	-17,62
1034,563	-6,62
1034,806	-12,62
1035,048	-7,62
1035,29	-16,62
1035,533	-14,62
1035,775	-13,62
1036,018	-7,62
1036,26	-26,62
1036,502	11,38
1036,744	-9,62
1036,987	-29,62
1037,229	-3,62
1037,471	-11,62
1037,714	20,38
1037,956	-10,62
1038,198	-20,62
1038,44	-19,62
1038,683	8,38
1038,925	-2,62
1039,167	-13,62
1039,409	-11,62
1039,651	-13,62
1039,894	-11,62
1040,136	-17,62
1040,378	8,38
1040,62	28,38
1040,862	-3,62
1041,104	18,38
1041,347	-15,62
1041,589	-26,62
1041,831	-3,62
1042,073	-11,62
1042,315	0,38
1042,557	-12,62
1042,799	6,38
1043,041	-6,62
1043,283	-9,62
1043,525	-18,62
1043,767	10,38
1044,009	-1,62
1044,251	-26,62
1044,493	-23,62
1044,735	-12,62
1044,977	-17,62
1045,219	-7,62
1045,461	-16,62
1045,703	-14,62
1045,945	-4,62
1046,187	-14,62
1046,429	-6,62
1046,671	-19,62
1046,913	-1,62
1047,155	-3,62
1047,397	10,38
1047,639	-9,62
1047,881	3,38
1048,122	-22,62
1048,364	-3,62
1048,606	-4,62
1048,848	-0,62
1049,09	0,38
1049,332	-6,62
1049,573	-20,62
1049,815	-14,62
1050,057	-11,62
1050,299	-8,62
1050,541	-13,62
1050,782	-6,62
1051,024	-8,62
1051,266	1,38
1051,508	5,38
1051,749	8,38
1051,991	-14,62
1052,233	8,38
1052,474	-3,62
1052,716	-10,62
1052,958	-9,62
1053,199	-1,62
1053,441	-16,62
1053,683	-17,62
1053,924	-5,62
1054,166	-3,62
1054,408	-16,62
1054,649	-11,62
1054,891	-6,62
1055,132	-11,62
1055,374	-8,62
1055,616	-18,62
1055,857	-11,62
1056,099	-6,62
1056,34	10,38
1056,582	-26,62
1056,823	-11,62
1057,065	1,38
1057,306	-5,62
1057,548	-2,62
1057,789	-11,62
1058,031	-9,62
1058,272	-15,62
1058,514	-1,62
1058,755	-17,62
1058,997	-10,62
1059,238	-10,62
1059,479	-13,62
1059,721	-19,62
1059,962	-14,62
1060,204	-11,62
1060,445	-15,62
1060,686	-11,62
1060,928	-1,62
1061,169	1,38
1061,41	9,38
1061,652	-2,62
1061,893	-19,62
1062,134	-3,62
1062,376	-17,62
1062,617	-7,62
1062,858	-13,62
1063,1	-11,62
1063,341	-5,62
1063,582	-1,62
1063,823	-3,62
1064,065	-15,62
1064,306	-4,62
1064,547	-14,62
1064,788	-17,62
1065,029	-15,62
1065,271	-22,62
1065,512	-23,62
1065,753	-14,62
1065,994	-4,62
1066,235	-4,62
1066,476	2,38
1066,718	-0,62
1066,959	6,38
1067,2	-13,62
1067,441	-3,62
1067,682	-17,62
1067,923	-15,62
1068,164	-25,62
1068,405	-13,62
1068,646	-11,62
1068,887	-5,62
1069,128	-3,62
1069,369	-1,62
1069,61	-20,62
1069,851	-4,62
1070,092	-7,62
1070,333	-15,62
1070,574	-23,62
1070,815	-6,62
1071,056	1,38
1071,297	0,38
1071,538	-13,62
1071,779	-4,62
1072,02	-5,62
1072,261	20,38
1072,502	-14,62
1072,743	-6,62
1072,984	-6,62
1073,225	-10,62
1073,466	-7,62
1073,706	-8,62
1073,947	-22,62
1074,188	-9,62
1074,429	-8,62
1074,67	1,38
1074,911	-7,62
1075,151	-19,62
1075,392	-16,62
1075,633	-18,62
1075,874	-13,62
1076,114	-12,62
1076,355	11,38
1076,596	-21,62
1076,837	-4,62
1077,077	-3,62
1077,318	-6,62
1077,559	-8,62
1077,8	-6,62
1078,04	2,38
1078,281	-2,62
1078,522	-22,62
1078,762	-13,62
1079,003	-7,62
1079,244	1,38
1079,484	-15,62
1079,725	-5,62
1079,965	-11,62
1080,206	-8,62
1080,447	-1,62
1080,687	-16,62
1080,928	-9,62
1081,168	-11,62
1081,409	-5,62
1081,649	-7,62
1081,89	-22,62
1082,131	-5,62
1082,371	-1,62
1082,612	-11,62
1082,852	-1,62
1083,093	-3,62
1083,333	-9,62
1083,573	-15,62
1083,814	5,38
1084,054	5,38
1084,295	30,38
1084,535	5,38
1084,776	-15,62
1085,016	-7,62
1085,257	-17,62
1085,497	-2,62
1085,737	16,38
1085,978	-6,62
1086,218	1,38
1086,458	-13,62
1086,699	-6,62
1086,939	-17,62
1087,179	-11,62
1087,42	2,38
1087,66	-3,62
1087,9	-2,62
1088,141	2,38
1088,381	-2,62
1088,621	-1,62
1088,861	-11,62
1089,102	1,38
1089,342	-7,62
1089,582	-16,62
1089,822	2,38
1090,063	-6,62
1090,303	-12,62
1090,543	-24,62
1090,783	-14,62
1091,023	-2,62
1091,263	-16,62
1091,504	-17,62
1091,744	-11,62
1091,984	10,38
1092,224	-1,62
1092,464	-8,62
1092,704	-4,62
1092,944	2,38
1093,184	6,38
1093,425	0,38
1093,665	-11,62
1093,905	-11,62
1094,145	-15,62
1094,385	-3,62
1094,625	-3,62
1094,865	-2,62
1095,105	-10,62
1095,345	-17,62
1095,585	-22,62
1095,825	-19,62
1096,065	1,38
1096,305	-18,62
1096,545	6,38
1096,785	-15,62
1097,025	4,38
1097,265	2,38
1097,504	-5,62
1097,744	0,38
1097,984	0,38
1098,224	1,38
1098,464	-13,62
1098,704	9,38
1098,944	-1,62
1099,184	-10,62
1099,423	-22,62
1099,663	-1,62
1099,903	-25,62
1100,143	-15,62
1100,383	-18,62
1100,622	-8,62
1100,862	-12,62
1101,102	-3,62
1101,342	-6,62
1101,582	1,38
1101,821	-17,62
1102,061	-3,62
1102,301	0,38
1102,54	6,38
1102,78	-4,62
1103,02	-17,62
1103,26	-23,62
1103,499	-9,62
1103,739	0,38
1103,979	14,38
1104,218	0,38
1104,458	5,38
1104,697	-6,62
1104,937	1,38
1105,177	-12,62
1105,416	-14,62
1105,656	-18,62
1105,896	-3,62
1106,135	-8,62
1106,375	-10,62
1106,614	-8,62
1106,854	2,38
1107,093	-3,62
1107,333	-10,62
1107,572	-13,62
1107,812	5,38
1108,051	5,38
1108,291	-13,62
1108,53	-9,62
1108,77	0,38
1109,009	13,38
1109,249	-12,62
1109,488	-12,62
1109,728	-9,62
1109,967	-8,62
1110,206	-6,62
1110,446	4,38
1110,685	-9,62
1110,925	-5,62
1111,164	-11,62
1111,403	4,38
1111,643	-3,62
1111,882	-11,62
1112,121	-13,62
1112,361	-1,62
1112,6	-10,62
1112,839	-3,62
1113,079	-6,62
1113,318	-9,62
1113,557	-8,62
1113,796	2,38
1114,036	-15,62
1114,275	-23,62
1114,514	10,38
1114,753	0,38
1114,993	15,38
1115,232	-7,62
1115,471	-13,62
1115,71	18,38
1115,949	-4,62
1116,188	-4,62
1116,428	3,38
1116,667	9,38
1116,906	-7,62
1117,145	1,38
1117,384	2,38
1117,623	-4,62
1117,862	15,38
1118,101	11,38
1118,341	9,38
1118,58	1,38
1118,819	1,38
1119,058	-9,62
1119,297	-18,62
1119,536	2,38
1119,775	1,38
1120,014	-9,62
1120,253	-2,62
1120,492	-2,62
1120,731	-6,62
1120,97	-3,62
1121,209	2,38
1121,448	-3,62
1121,687	-1,62
1121,926	6,38
1122,165	-16,62
1122,404	2,38
1122,642	9,38
1122,881	-26,62
1123,12	-5,62
1123,359	1,38
1123,598	13,38
1123,837	-6,62
1124,076	-16,62
1124,315	9,38
1124,553	6,38
1124,792	-0,62
1125,031	10,38
1125,27	-12,62
1125,509	-3,62
1125,747	9,38
1125,986	0,38
1126,225	2,38
