t (s),V (mV)
0,16.0647
0.999,16.0552
2,16.0434
2.999,16.0299
3.999,16.0155
4.999,15.998
5.999,15.982
6.999,15.9637
8,15.9453
8.999,15.9264
10,15.9062
10.999,15.8865
11.999,15.8664
13,15.8459
13.999,15.8256
15,15.8051
15.999,15.7843
17,15.7631
18,15.7424
19,15.7217
19.999,15.7006
20.999,15.6793
21.999,15.6577
22.999,15.6367
23.999,15.615
25,15.5931
26,15.572
26.999,15.5512
27.999,15.529
29,15.5075
29.999,15.4861
30.999,15.4647
31.999,15.443
32.999,15.4225
34,15.4009
35,15.3798
35.999,15.3584
36.999,15.3363
37.999,15.3155
39,15.294
39.999,15.2724
40.999,15.2513
41.999,15.2297
43,15.2079
43.999,15.1862
45,15.1649
45.999,15.1431
46.999,15.1216
47.999,15.1009
48.999,15.0789
49.999,15.057
50.999,15.0356
51.999,15.0142
52.999,14.9925
53.999,14.9718
54.999,14.9505
55.999,14.9287
56.999,14.9072
57.999,14.8862
58.999,14.8654
59.999,14.8443
60.999,14.8236
61.999,14.8022
62.999,14.7819
63.999,14.7607
64.999,14.7402
65.999,14.7194
67,14.6993
67.999,14.6777
68.999,14.6581
70,14.6375
71,14.6171
72,14.5953
72.999,14.5756
73.999,14.5547
74.999,14.5348
75.999,14.5137
76.999,14.4937
77.999,14.4732
79,14.453
79.999,14.4328
81,14.4122
81.999,14.3918
82.999,14.3717
84,14.3517
84.999,14.3304
86,14.3109
87,14.2903
87.999,14.2701
88.999,14.2493
89.999,14.2299
91,14.2101
91.999,14.1895
93,14.17
93.999,14.1494
94.999,14.1298
95.999,14.11
97,14.0898
97.999,14.0695
98.999,14.0498
100,14.0294
100.999,14.0098
102,13.991
103,13.9711
103.999,13.9506
104.999,13.9305
105.999,13.9113
107,13.8913
107.999,13.8725
108.999,13.853
109.999,13.8332
111,13.8147
111.999,13.7955
113,13.7761
113.999,13.7565
115,13.7382
115.999,13.7197
116.999,13.6999
118,13.6813
118.999,13.6627
119.999,13.6434
121,13.6248
121.999,13.6062
123,13.5869
123.999,13.5684
124.999,13.5502
126,13.5309
127,13.5129
127.999,13.4949
128.999,13.4765
129.999,13.4596
131,13.44
131.999,13.4223
132.999,13.4043
133.999,13.3855
134.999,13.3676
136,13.3489
136.999,13.3308
137.999,13.3125
138.999,13.2941
140,13.2759
140.999,13.258
141.999,13.2396
143,13.2227
143.999,13.2061
144.999,13.1878
146,13.1708
146.999,13.1513
147.999,13.1335
148.999,13.1157
150,13.0978
151,13.0799
151.999,13.0623
152.999,13.0442
153.999,13.0257
154.999,13.0078
155.999,12.9893
156.999,12.9718
157.999,12.9527
158.999,12.9355
159.999,12.9168
160.999,12.8991
161.999,12.8809
162.999,12.8623
163.999,12.8448
164.999,12.827
165.999,12.8092
166.999,12.791
167.999,12.7741
168.999,12.7559
169.999,12.7388
170.999,12.7217
171.999,12.7046
172.999,12.6866
173.999,12.6697
174.999,12.6522
175.999,12.6353
177,12.618
177.999,12.6018
178.999,12.5838
179.999,12.5671
180.999,12.5501
182,12.5333
183,12.5159
183.999,12.4995
185,12.4821
186,12.4654
186.999,12.4494
187.999,12.4325
188.999,12.4154
189.999,12.3991
191,12.3818
192,12.365
192.999,12.3484
193.999,12.3318
195,12.3148
196,12.2985
196.999,12.2816
197.999,12.2648
199,12.2477
199.999,12.2309
200.999,12.2149
201.999,12.1984
203,12.1812
203.999,12.1644
204.999,12.1476
205.999,12.1309
207,12.114
207.999,12.0981
209,12.0815
209.999,12.0651
211,12.048
211.999,12.0324
213.001,12.0147
213.999,11.9997
214.999,11.9835
216,11.9666
216.999,11.9509
218,11.9346
218.999,11.9183
220,11.9018
220.999,11.8852
221.999,11.8692
223,11.8526
223.999,11.8368
225,11.8209
225.999,11.8047
227,11.7889
227.999,11.773
228.999,11.7576
230,11.7409
230.999,11.7246
232,11.709
232.999,11.6933
234,11.6772
234.999,11.6613
235.999,11.6452
237,11.6291
237.999,11.6135
239,11.5978
239.999,11.5818
240.999,11.5661
242,11.551
242.999,11.535
244,11.5196
244.999,11.5035
245.999,11.4871
247,11.472
247.999,11.4567
248.999,11.4413
250,11.4258
251,11.4107
251.999,11.395
252.999,11.3801
253.999,11.365
255,11.3486
256,11.3351
257,11.3187
257.999,11.3037
258.999,11.289
259.999,11.2736
261,11.2584
262,11.2435
262.999,11.2282
263.999,11.2137
264.999,11.1986
266,11.1841
267,11.1687
267.999,11.1536
268.999,11.1389
270,11.1234
270.999,11.1085
271.999,11.0943
273,11.0793
273.999,11.0641
274.999,11.0496
276,11.0353
276.999,11.0202
277.999,11.0051
278.999,10.9907
279.999,10.9756
280.999,10.9608
281.999,10.9467
283,10.9301
284,10.9148
284.999,10.9002
285.999,10.8854
286.999,10.8709
287.999,10.8561
288.999,10.8413
289.999,10.8262
290.999,10.8111
291.999,10.7965
293,10.782
294,10.7675
295,10.7533
295.999,10.7385
296.999,10.7243
297.999,10.7093
298.999,10.695
299.999,10.6807
300.999,10.6663
301.999,10.6521
302.999,10.6383
303.999,10.6247
304.999,10.6107
305.999,10.5975
306.999,10.5836
307.999,10.5702
308.999,10.5561
309.998,10.5424
310.999,10.5282
311.999,10.5144
312.999,10.5003
313.999,10.4863
314.998,10.4733
315.998,10.459
316.998,10.4451
317.999,10.4313
318.999,10.4177
319.998,10.4042
320.998,10.3904
321.998,10.3776
322.998,10.3639
323.998,10.3494
324.998,10.3368
325.998,10.322
326.998,10.3079
327.998,10.2939
328.998,10.2807
329.999,10.2653
330.999,10.252
331.999,10.2372
332.998,10.2241
333.998,10.2109
335,10.1957
335.998,10.1823
336.999,10.1687
337.998,10.1554
338.998,10.1417
339.998,10.1282
340.998,10.1148
341.999,10.101
342.999,10.0874
343.998,10.0749
344.998,10.0616
345.998,10.0479
346.998,10.0341
347.998,10.0209
348.998,10.008
349.999,9.9943
351,9.9804
352,9.9675
353,9.9547
353.999,9.9412
354.999,9.9276
356,9.914
356.999,9.9012
357.999,9.8876
359,9.8743
359.999,9.8615
360.999,9.8485
362,9.835
362.999,9.822
363.999,9.8093
365,9.7966
365.999,9.7819
366.999,9.7701
368,9.7584
369,9.7461
369.999,9.7328
370.999,9.7197
372,9.707
373,9.6958
373.999,9.6781
374.999,9.66
375.999,9.6496
376.999,9.64
377.999,9.6315
378.999,9.6183
379.999,9.6071
381,9.5956
381.999,9.5828
382.999,9.5699
383.999,9.5577
384.999,9.5451
386,9.5326
387,9.5195
388,9.5062
389,9.4915
389.999,9.4798
390.999,9.4657
392,9.4533
393,9.441
393.999,9.4301
394.999,9.4172
395.999,9.4027
397,9.3894
398,9.377
398.999,9.3653
399.999,9.3519
400.999,9.3417
401.999,9.3268
403,9.3164
403.999,9.3032
404.999,9.2892
405.999,9.2749
406.999,9.2644
407.999,9.2525
408.999,9.2398
410,9.2273
411,9.2168
412,9.2039
412.999,9.1946
413.999,9.1829
414.999,9.1712
415.999,9.1581
416.999,9.1478
417.999,9.135
418.999,9.1222
419.999,9.1111
421,9.0983
421.999,9.0878
422.999,9.0757
423.999,9.0624
424.999,9.0502
425.999,9.0397
426.999,9.0265
427.999,9.0137
428.999,8.9998
429.999,8.9913
430.999,8.9819
431.999,8.9706
433,8.9588
434,8.9469
435,8.9352
436,8.9238
436.999,8.9114
437.999,8.8996
438.999,8.8881
439.999,8.8765
440.999,8.8641
441.999,8.8531
442.999,8.8405
443.999,8.8296
444.999,8.8179
445.999,8.806
446.999,8.7949
448,8.7832
449,8.7717
450,8.7593
451,8.7489
452,8.7365
453,8.7251
454,8.7131
455,8.702
455.999,8.6902
457,8.6807
458,8.6695
459,8.6578
459.999,8.6458
460.999,8.6343
461.999,8.6235
462.999,8.6117
463.999,8.5993
465,8.5879
466,8.5766
466.999,8.5644
467.999,8.5531
468.999,8.5411
469.999,8.5298
470.999,8.5187
472,8.5079
472.999,8.4961
473.999,8.4856
475,8.4736
475.999,8.4628
476.999,8.4511
478,8.4406
479,8.4286
479.999,8.4178
480.999,8.4072
481.999,8.3961
482.999,8.3846
484,8.373
484.999,8.3622
486,8.351
487,8.3396
487.999,8.329
488.999,8.3181
490,8.3068
490.999,8.2963
491.999,8.2848
492.999,8.2735
494,8.263
494.999,8.2516
495.999,8.241
496.999,8.2303
498,8.2193
499,8.2085
499.999,8.1978
501,8.1868
501.999,8.1759
503,8.1652
504,8.1551
504.999,8.1439
505.999,8.1333
506.999,8.1223
507.999,8.1126
509,8.1012
509.999,8.0906
510.999,8.0802
